1111101001010110
1111101001010110
1111101001010110
1111101001010110
1111101001010110
1111101001010110
1111101001010110
1111101001010110
1111101101010000
1111101010111010
1111101001010110
1111101000100100
1111100111000000
1111100111110010
1111100111000000
1111100100101010
1111100011111000
1111100011000110
1111100101011100
1111100111110010
1111100100101010
1111100011111000
1111100010010100
1111100011111000
1111100111110010
1111101010111010
1111100111110010
1111100010010100
1111011111111110
1111011011010010
1111011100110110
1111011001101110
1111011000111100
1111010111011000
1111010101000010
1111010101000010
1111010101000010
1111010110100110
1111011000001010
1111010110100110
1111010101000010
1111010010101100
1111010010101100
1111010010101100
1111010010101100
1111010011011110
1111010001111010
1111010000010110
1111010011011110
1111010101000010
1111010101000010
1111010100010000
1111010011011110
1111010000010110
1111010010101100
1111010001001000
1111010100010000
1111010010101100
1111010001001000
1111001110110010
1111001110000000
1111001011101010
1111000111110000
1111000011110110
1111000011110110
1111000000101110
1110111000111010
1110110100001110
1110110100001110
1110111101100110
1111001100011100
1111011101101000
1111110101000100
0000010010110000
0000111010100110
0001100000111000
0001111001111000
0010000011010000
0001110111100010
0001010001010000
0000011010100100
1111100110001110
1111000110111110
1110111100000010
1110111101100110
1111000110001100
1111001100011100
1111001101001110
1111001011101010
1111001010000110
1111001100011100
1111001101001110
1111001110110010
1111001111100100
1111001110000000
1111001011101010
1111001010111000
1111001101001110
1111001010000110
1111001011101010
1111001100011100
1111001011101010
1111001100011100
1111001101001110
1111001100011100
1111001100011100
1111001010000110
1111001000100010
1111001011101010
1111001101001110
1111010000010110
1111001110000000
1111001110000000
1111001100011100
1111001010111000
1111001011101010
1111001010111000
1111001010000110
1111001000100010
1111001000100010
1111001010111000
1111001100011100
1111001100011100
1111001100011100
1111001010111000
1111001001010100
1111001101001110
1111001101001110
1111001100011100
1111001100011100
1111001011101010
1111001011101010
1111001010111000
1111001100011100
1111001010111000
1111001001010100
1111001000100010
1111001001010100
1111001010000110
1111001100011100
1111001110000000
1111001011101010
1111001100011100
1111001010000110
1111001100011100
1111001011101010
1111001011101010
1111001010000110
1111001010000110
1111001000100010
1111001010111000
1111001010111000
1111001011101010
1111001100011100
1111001001010100
1111001001010100
1111001010000110
1111001011101010
1111001011101010
1111001011101010
1111001001010100
1111001000100010
1111001000100010
1111001010000110
1111001010000110
1111001011101010
1111001001010100
1111000111110000
1111000111110000
1111000111110000
1111000110111110
1111000111110000
1111000110001100
1111000011110110
1111000110001100
1111000111110000
1111001000100010
1111000111110000
1111000101011010
1111000101011010
1111000110111110
1111000110111110
1111000111110000
1111000111110000
1111000110111110
1111000110001100
1111001000100010
1111001100011100
1111001101001110
1111001101001110
1111001011101010
1111001010111000
1111001110110010
1111010001001000
1111010001001000
1111010010101100
1111010001111010
1111010010101100
1111010011011110
1111010101000010
1111011000001010
1111011000111100
1111011000111100
1111010110100110
1111011000001010
1111011001101110
1111011100000100
1111011001101110
1111011001101110
1111011000001010
1111011000001010
1111011010100000
1111011000111100
1111011000001010
1111011001101110
1111011000001010
1111011000111100
1111011000111100
1111010110100110
1111010111011000
1111010111011000
1111010110100110
1111010101110100
1111010110100110
1111010111011000
1111010101000010
1111010100010000
1111010010101100
1111010101000010
1111010101110100
1111010111011000
1111010100010000
1111010100010000
1111010011011110
1111010101000010
1111010101000010
1111010110100110
1111010101110100
1111010011011110
1111010010101100
1111010100010000
1111010101000010
1111010011011110
1111010100010000
1111010001001000
1111010001001000
1111010000010110
1111010001111010
1111010001001000
1111001111100100
1111001111100100
1111010000010110
1111010001111010
1111010011011110
1111010011011110
1111010010101100
1111010001111010
1111001111100100
1111010010101100
1111010001111010
1111010001001000
1111010000010110
1111001111100100
1111001101001110
1111001111100100
1111010001001000
1111010010101100
1111001111100100
1111001101001110
1111001100011100
1111001110110010
1111010001001000
1111010000010110
1111001111100100
1111001110000000
1111001100011100
1111001101001110
1111001110110010
1111001111100100
1111010000010110
1111010000010110
1111001111100100
1111010001001000
1111010000010110
1111010010101100
1111010001001000
1111010001001000
1111010000010110
1111010000010110
1111010010101100
1111010100010000
1111010001111010
1111010000010110
1111001110110010
1111010000010110
1111010001111010
1111010010101100
1111010100010000
1111010101110100
1111010101000010
1111010101000010
1111010101110100
1111011000111100
1111011000111100
1111011000001010
1111011100110110
1111011101101000
1111011111111110
1111100000110000
1111011111111110
1111011110011010
1111011100000100
1111011101101000
1111011100110110
1111011100110110
1111011100110110
1111011100000100
1111011011010010
1111011010100000
1111011011010010
1111011101101000
1111011111001100
1111011111111110
1111011001101110
1111010011011110
1111010011011110
1111010001001000
1111001111100100
1111001100011100
1111001100011100
1111001101001110
1111001110110010
1111001110000000
1111001110110010
1111001101001110
1111001010111000
1111001010000110
1111001010111000
1111001010111000
1111001001010100
1111001010000110
1111001000100010
1111001100011100
1111001011101010
1111001100011100
1111001110000000
1111001010000110
1111001000100010
1111001010111000
1111001100011100
1111001101001110
1111001100011100
1111001001010100
1111000110111110
1111000111110000
1111000100101000
1110111101100110
1110111010011110
1110110101110010
1110110000010100
1110101100011010
1110110001000110
1110111111001010
1111010001001000
1111100111000000
1111111101101010
0000100100101110
0001001100100100
0001110000100000
0010001000101110
0010010010111000
0010001101011010
0001110101111110
0001001100100100
0000011001110010
1111101110110100
1111010101110100
1111000011000100
1110111001101100
1110110101110010
1110111000111010
1110111101100110
1111000011000100
1111000011000100
1111000011110110
1111000011000100
1111000100101000
1111000100101000
1111000100101000
1111000010010010
1111000011110110
1111000011110110
1111000011110110
1111000101011010
1111000010010010
1110111111111100
1110111111111100
1111000001100000
1111000010010010
1111000011000100
1111000000101110
1111000010010010
1111000011110110
1111000101011010
1111000011000100
1111000011000100
1111000000101110
1110111111111100
1110111111111100
1111000011000100
1111000011000100
1111000010010010
1111000000101110
1110111111001010
1111000001100000
1110111111111100
1111000000101110
1110111111111100
1110111111001010
1110111111111100
1111000001100000
1111000001100000
1111000010010010
1111000011000100
1111000000101110
1110111111111100
1111000011000100
1111000011000100
1111000011110110
1111000011110110
1110111111111100
1111000000101110
1111000010010010
1111000011000100
1111000101011010
1111000011000100
1111000010010010
1110111111111100
1111000001100000
1111000011000100
1111000011000100
1111000011110110
1111000000101110
1110111111001010
1110111111001010
1111000001100000
1111000010010010
1111000000101110
1110111111001010
1110111110011000
1110111110011000
1110111111111100
1110111111001010
1110111101100110
1110111110011000
1110111100000010
1110111100110100
1110111100110100
1110111110011000
1110111100110100
1110111001101100
1110111000111010
1110111001101100
1110111100000010
1110111010011110
1110111001101100
1110111000111010
1110110110100100
1110111000001000
1110111000111010
1110111001101100
1110111000111010
1110110110100100
1110110101110010
1110111000001000
1110111001101100
1110111010011110
1110111011010000
1110111100000010
1110111011010000
1110111111111100
1111000010010010
1111000110001100
1111000110111110
1111000111110000
1111000110111110
1111001010111000
1111001101001110
1111001110110010
1111001110000000
1111001100011100
1111001100011100
1111001110000000
1111001111100100
1111010001001000
1111010001001000
1111001110000000
1111001110000000
1111001110110010
1111010000010110
1111010000010110
1111010001111010
1111001110000000
1111001100011100
1111010000010110
1111001111100100
1111010001001000
1111010001001000
1111001110000000
1111001101001110
1111001111100100
1111010000010110
1111001110110010
1111010000010110
1111001110110010
1111001110110010
1111001111100100
1111010001111010
1111010010101100
1111010000010110
1111001111100100
1111001110000000
1111001110110010
1111010001001000
1111001110110010
1111001110110010
1111001110110010
1111001100011100
1111001110110010
1111001110000000
1111001110110010
1111001101001110
1111001011101010
1111001010111000
1111001011101010
1111001011101010
1111001100011100
1111001101001110
1111001010000110
1111001001010100
1111001010000110
1111001011101010
1111001100011100
1111001100011100
1111001010000110
1111001010000110
1111001010000110
1111001110000000
1111001100011100
1111001011101010
1111001010111000
1111001000100010
1111001011101010
1111001100011100
1111001100011100
1111001011101010
1111001000100010
1111000111110000
1111001000100010
1111001001010100
1111001010111000
1111001010000110
1111001010000110
1111001010000110
1111001010000110
1111001100011100
1111001100011100
1111001011101010
1111001010000110
1111001001010100
1111001001010100
1111001010111000
1111001100011100
1111001010000110
1111001010000110
1111001000100010
1111001001010100
1111001010111000
1111001100011100
1111001010111000
1111001010111000
1111001010111000
1111001100011100
1111001011101010
1111001100011100
1111001011101010
1111001010000110
1111001010000110
1111001010111000
1111001100011100
1111001110110010
1111010001111010
1111010001001000
1111010001111010
1111010011011110
1111010101000010
1111010110100110
1111010110100110
1111010110100110
1111011000001010
1111011000111100
1111011010100000
1111011100110110
1111011110011010
1111011010100000
1111011001101110
1111011010100000
1111011001101110
1111011011010010
1111011001101110
1111011000111100
1111010101000010
1111010101000010
1111010110100110
1111011000111100
1111011100110110
1111011101101000
1111011100000100
1111010110100110
1111010101110100
1111010100010000
1111010011011110
1111010000010110
1111001110000000
1111001010111000
1111001100011100
1111001011101010
1111001011101010
1111001000100010
1111000110001100
1111000111110000
1111001010000110
1111001001010100
1111001000100010
1111000110111110
1111000101011010
1111000100101000
1111000110001100
1111000110111110
1111000110111110
1111000100101000
1111000011110110
1111000100101000
1111000101011010
1111001000100010
1111000110001100
1111000011000100
1111000000101110
1110111111111100
1110111100000010
1110110111010110
1110110011011100
1110101110110000
1110101001010010
1110100110111100
1110101101111110
1111000000101110
1111011000111100
1111110001111100
0000010010110000
0001000000000100
0001101011110100
0010001010010010
0010010110000000
0010000100110100
0001010001010000
0000000111110100
1111001110000000
1110110001111000
1110110001000110
1110111010011110
1110111111001010
1111000010010010
1111000011000100
1111000010010010
1111000011000100
1111000010010010
1111000000101110
1111000010010010
1111000000101110
1111000011000100
1111000010010010
1111000010010010
1110111111111100
1111000000101110
1111000001100000
1111000001100000
1110111111001010
1111000000101110
1110111110011000
1110111111001010
1111000000101110
1111000000101110
1110111110011000
1110111110011000
1110111100000010
1110111110011000
1110111111111100
1110111111111100
1111000000101110
1110111101100110
1110111100110100
1110111110011000
1110111111001010
1110111111111100
1110111111111100
1110111101100110
1110111110011000
1111000001100000
1111000010010010
1111000001100000
1111000001100000
1111000010010010
1110111111001010
1111000000101110
1111000011000100
1111000001100000
1111000001100000
1110111111001010
1110111101100110
1110111101100110
1110111111001010
1110111111001010
1110111111111100
1110111101100110
1110111101100110
1110111110011000
1110111111001010
1111000001100000
1111000001100000
1110111111111100
1110111101100110
1110111111111100
1111000000101110
1111000010010010
1111000001100000
1111000001100000
1111000000101110
1111000011110110
1111000001100000
1111000011000100
1111000011000100
1111000001100000
1110111111001010
1111000000101110
1111000000101110
1110111111111100
1110111111001010
1110111110011000
1110111110011000
1110111101100110
1110111111001010
1110111111001010
1110111111111100
1110111100000010
1110111100110100
1110111100000010
1110111110011000
1110111110011000
1110111110011000
1110111110011000
1110111101100110
1110111101100110
1110111111001010
1111000010010010
1111000010010010
1111000011000100
1111000101011010
1111000111110000
1111001010111000
1111001011101010
1111001100011100
1111001011101010
1111001011101010
1111001101001110
1111001110000000
1111010000010110
1111010000010110
1111001110110010
1111001111100100
1111010000010110
1111010001001000
1111010001001000
1111010001001000
1111001111100100
1111001111100100
1111001111100100
1111001110110010
1111010001001000
1111010000010110
1111001110110010
1111001110000000
1111001101001110
1111001111100100
1111010000010110
1111010000010110
1111001110000000
1111001101001110
1111010000010110
1111001111100100
1111010001111010
1111001111100100
1111001101001110
1111001100011100
1111001110000000
1111001110000000
1111001110000000
1111001101001110
1111001001010100
1111001001010100
1111001010111000
1111001011101010
1111001100011100
1111001011101010
1111001010111000
1111000111110000
1111001001010100
1111001001010100
1111001000100010
1111000111110000
1111001000100010
1111000110111110
1111001000100010
1111001001010100
1111001010111000
1111001000100010
1111001001010100
1111000110111110
1111000110111110
1111001001010100
1111001000100010
1111001001010100
1111000110001100
1111000100101000
1111000110001100
1111000111110000
1111000110111110
1111000111110000
1111000110111110
1111000100101000
1111000110001100
1111000110111110
1111001001010100
1111001001010100
1111001001010100
1111000110001100
1111000110111110
1111001010000110
1111001010000110
1111001010111000
1111001000100010
1111000110111110
1111000111110000
1111001000100010
1111001000100010
1111001000100010
1111000101011010
1111000011110110
1111001000100010
1111000111110000
1111001000100010
1111000111110000
1111000111110000
1111000110001100
1111000111110000
1111001010000110
1111001000100010
1111001010000110
1111001010000110
1111001010000110
1111001010111000
1111001111100100
1111010000010110
1111010000010110
1111001111100100
1111010000010110
1111010010101100
1111010011011110
1111010101000010
1111010100010000
1111010100010000
1111010101000010
1111010110100110
1111011000001010
1111011001101110
1111010111011000
1111010110100110
1111010101000010
1111010100010000
1111010110100110
1111010101110100
1111010101000010
1111010100010000
1111010101000010
1111010100010000
1111010101000010
1111010110100110
1111011000001010
1111011010100000
1111010111011000
1111010100010000
1111001111100100
1111001111100100
1111001010000110
1111000111110000
1111000100101000
1111000011110110
1111000100101000
1111000110001100
1111000101011010
1111000011110110
1111000011000100
1111000010010010
1111000011110110
1111000011110110
1111000011110110
1111000010010010
1111000000101110
1111000001100000
1111000101011010
1111000101011010
1111000011000100
1111000010010010
1110111111001010
1111000000101110
1111000001100000
1111000011000100
1111000000101110
1110111101100110
1110111000001000
1110110101110010
1110110001000110
1110110000010100
1110101101111110
1110101011101000
1110100010010000
1110011011001110
1110011101100100
1110100110001010
1110110010101010
1111000011110110
1111010101110100
1111101110000010
0000001110000100
0000111001110100
0001100011001110
0001111110100100
0010000110011000
0001111000010100
0001001010001110
0000001010001010
1111010000010110
1110110001111000
1110101110110000
1110110101110010
1110111111111100
1111000011000100
1111000011000100
1111000001100000
1110111111111100
1111000000101110
1111000011110110
1111000011000100
1111000010010010
1111000000101110
1110111111111100
1111000000101110
1111000001100000
1111000011000100
1111000010010010
1110111111111100
1110111111001010
1110111111111100
1111000010010010
1111000000101110
1110111111111100
1111000000101110
1111000000101110
1110111111111100
1111000011000100
1111000011110110
1111000011000100
1111000010010010
1111000001100000
1111000001100000
1111000001100000
1111000010010010
1111000010010010
1111000000101110
1111000000101110
1111000001100000
1111000010010010
1111000011110110
1111000101011010
1111000011110110
1111000010010010
1111000011000100
1111000011110110
1111000101011010
1111000011110110
1111000010010010
1111000010010010
1111000011110110
1111000101011010
1111000101011010
1111000011110110
1111000010010010
1111000011000100
1111000011000100
1111000110111110
1111000101011010
1111000011110110
1111000010010010
1111000100101000
1111000011110110
1111000101011010
1111000100101000
1111000011000100
1111000100101000
1111000101011010
1111000101011010
1111000101011010
1111000101011010
1111000100101000
1111000011000100
1111000011000100
1111000110111110
1111000110001100
1111000101011010
1111000011110110
1111000011000100
1111000011000100
1111000101011010
1111000110111110
1111000011110110
1111000100101000
1111000011000100
1111000101011010
1111000101011010
1111000110111110
1111000110001100
1111000011110110
1111000010010010
1111000011110110
1111000011110110
1111000110001100
1111000110111110
1111000110001100
1111000101011010
1111001001010100
1111001011101010
1111001110000000
1111001110110010
1111001110000000
1111001101001110
1111001110110010
1111010001111010
1111010011011110
1111010001001000
1111010001111010
1111010011011110
1111010011011110
1111010100010000
1111010101110100
1111010100010000
1111010010101100
1111010001111010
1111010001111010
1111010010101100
1111010100010000
1111010010101100
1111010001111010
1111001111100100
1111010001111010
1111010011011110
1111010100010000
1111010101000010
1111010001111010
1111010000010110
1111010001001000
1111010001111010
1111010001111010
1111010011011110
1111010001001000
1111010000010110
1111010001001000
1111010001111010
1111010001001000
1111010000010110
1111001110110010
1111001111100100
1111001110110010
1111010001111010
1111010001001000
1111001111100100
1111001100011100
1111001010111000
1111001100011100
1111001110000000
1111001110000000
1111001110110010
1111001101001110
1111001011101010
1111001100011100
1111001110110010
1111001110000000
1111001110000000
1111001100011100
1111001010000110
1111001010111000
1111001011101010
1111001100011100
1111001011101010
1111001010000110
1111001001010100
1111001010000110
1111001010111000
1111001011101010
1111001011101010
1111001100011100
1111001011101010
1111001010111000
1111001011101010
1111001110000000
1111001010111000
1111001010111000
1111001001010100
1111000110111110
1111000111110000
1111001010000110
1111001010000110
1111001001010100
1111001001010100
1111001001010100
1111001010111000
1111001010111000
1111001010000110
1111001010000110
1111000100101000
1111000111110000
1111000111110000
1111001010000110
1111001010000110
1111001001010100
1111001000100010
1111001010000110
1111001100011100
1111001100011100
1111001011101010
1111001011101010
1111001010111000
1111001100011100
1111001110000000
1111010010101100
1111010010101100
1111010001001000
1111010000010110
1111010011011110
1111010100010000
1111010101000010
1111010100010000
1111010101000010
1111010101110100
1111010110100110
1111011000111100
1111011100000100
1111011001101110
1111011010100000
1111011000001010
1111011000001010
1111011001101110
1111011011010010
1111011000001010
1111010110100110
1111010111011000
1111011000001010
1111010101110100
1111010110100110
1111010100010000
1111011000001010
1111011000111100
1111011001101110
1111010110100110
1111010100010000
1111010001001000
1111001110110010
1111001101001110
1111001011101010
1111001010000110
1111001100011100
1111001011101010
1111001010000110
1111000111110000
1111001001010100
1111001010111000
1111001011101010
1111001010000110
1111000111110000
1111000110111110
1111000101011010
1111000110001100
1111000110111110
1111000110111110
1111000100101000
1111000101011010
1111000101011010
1111000110111110
1111000110001100
1111000111110000
1111000110001100
1111000100101000
1111000110111110
1111000111110000
1111001001010100
1111001000100010
1111000110001100
1111000011110110
1111000010010010
1110111100110100
1110111010011110
1110110100001110
1110101111100010
1110100111101110
1110101001010010
1110110101110010
1111001000100010
1111011101101000
1111110111011010
0000011100111010
0001001010001110
0001101110001010
0010000000001000
0001111001111000
0001010011100110
0000010110101010
1111100000110000
1110111110011000
1110110001111000
1110110101000000
1110111001101100
1110111111111100
1111000001100000
1111000011000100
1111000011000100
1111000001100000
1111000000101110
1110111101100110
1110111101100110
1111000000101110
1111000010010010
1111000000101110
1111000000101110
1110111111001010
1111000000101110
1111000011110110
1111000011000100
1111000010010010
1111000010010010
1111000010010010
1111000010010010
1111000011110110
1111000011000100
1111000011000100
1111000001100000
1110111101100110
1110111111111100
1111000001100000
1111000010010010
1111000001100000
1111000000101110
1110111101100110
1110111111001010
1111000000101110
1111000000101110
1111000000101110
1110111111111100
1110111111001010
1111000000101110
1110111110011000
1111000000101110
1110111111111100
1110111111111100
1110111110011000
1110111111001010
1111000000101110
1111000010010010
1111000010010010
1111000010010010
1111000001100000
1111000010010010
1111000010010010
1111000000101110
1111000000101110
1110111110011000
1110111100000010
1110111111001010
1111000000101110
1111000010010010
1111000011000100
1110111111001010
1111000000101110
1111000000101110
1111000001100000
1111000010010010
1111000010010010
1111000000101110
1110111110011000
1110111111001010
1111000001100000
1111000010010010
1111000001100000
1111000000101110
1110111101100110
1110111101100110
1110111101100110
1110111110011000
1110111101100110
1110111001101100
1110111010011110
1110111001101100
1110111100000010
1110111010011110
1110110110100100
1110111000111010
1110111000001000
1110111011010000
1110111100000010
1110111101100110
1110111100110100
1110111010011110
1110111001101100
1110111010011110
1110111100110100
1110111110011000
1110111111111100
1110111101100110
1110111110011000
1111000000101110
1111000100101000
1111000110001100
1111000110111110
1111000110111110
1111000110111110
1111001010000110
1111001100011100
1111001110110010
1111010000010110
1111010000010110
1111001110000000
1111001111100100
1111001111100100
1111010000010110
1111001111100100
1111001110110010
1111001110000000
1111001110110010
1111010000010110
1111010000010110
1111010001111010
1111001111100100
1111001110000000
1111001111100100
1111001110110010
1111010001111010
1111010001001000
1111010000010110
1111010001001000
1111010011011110
1111010100010000
1111010010101100
1111010001111010
1111010000010110
1111001101001110
1111010000010110
1111010001001000
1111010001001000
1111001110110010
1111001101001110
1111001011101010
1111001101001110
1111001110110010
1111001110000000
1111001011101010
1111001100011100
1111001010111000
1111001101001110
1111001101001110
1111001110000000
1111001110110010
1111001011101010
1111001011101010
1111001010000110
1111001011101010
1111001101001110
1111001100011100
1111001110110010
1111001011101010
1111001100011100
1111001100011100
1111001100011100
1111001100011100
1111001011101010
1111001010111000
1111001100011100
1111001110000000
1111001110110010
1111001101001110
1111001011101010
1111001000100010
1111001010000110
1111001010111000
1111001011101010
1111001110000000
1111001101001110
1111001001010100
1111001100011100
1111001110110010
1111001110110010
1111001100011100
1111001100011100
1111001011101010
1111001011101010
1111001100011100
1111001100011100
1111001100011100
1111001010111000
1111001010111000
1111001010111000
1111001101001110
1111001101001110
1111001101001110
1111001010000110
1111001001010100
1111001010111000
1111001100011100
1111001110000000
1111001111100100
1111010000010110
1111010000010110
1111010101000010
1111010101110100
1111011000001010
1111010111011000
1111010110100110
1111010111011000
1111011000111100
1111011011010010
1111011011010010
1111011101101000
1111011011010010
1111011011010010
1111011101101000
1111011100000100
1111011100110110
1111011011010010
1111011001101110
1111011000001010
1111011010100000
1111011100000100
1111011100000100
1111011000111100
1111011000001010
1111011000111100
1111011100000100
1111011111111110
1111100001100010
1111011111001100
1111011100000100
1111010101110100
1111010101110100
1111010011011110
1111010011011110
1111001111100100
1111001100011100
1111001010111000
1111001010111000
1111001010000110
1111001001010100
1111001001010100
1111001010111000
1111001000100010
1111001010000110
1111001010111000
1111001010111000
1111001010000110
1111001000100010
1111000110001100
1111001000100010
1111000110001100
1111001010000110
1111001010111000
1111000111110000
1111000100101000
1111000111110000
1111001010000110
1111001001010100
1111001001010100
1111001000100010
1111000100101000
1111000011000100
1111000010010010
1110111101100110
1110111000111010
1110110101110010
1110110000010100
1110101010110110
1110101011101000
1110110010101010
1111000000101110
1111010001111010
1111100111000000
0000000110010000
0000110001001110
0001011100111110
0001111101000000
0010001010010010
0001111100001110
0001010001010000
0000010100010100
1111011110011010
1110111101100110
1110110001111000
1110110011011100
1110111001101100
1111000001100000
1111000011000100
1111000010010010
1111000010010010
1111000001100000
1111000011000100
1111000100101000
1111000011110110
1111000011110110
1111000001100000
1110111111111100
1110111111111100
1111000011000100
1111000011000100
1111000000101110
1111000000101110
1110111111001010
1110111111111100
1111000010010010
1111000010010010
1111000001100000
1110111111001010
1110111111001010
1110111111001010
1111000001100000
1111000011000100
1111000011000100
1110111111111100
1110111111001010
1111000000101110
1111000010010010
1111000010010010
1111000010010010
1111000000101110
1110111111111100
1110111111111100
1111000001100000
1111000011000100
1111000010010010
1110111111111100
1110111101100110
1110111111001010
1111000000101110
1110111111111100
1111000000101110
1110111111001010
1110111101100110
1110111101100110
1110111111111100
1111000010010010
1111000011000100
1111000001100000
1110111111111100
1110111111111100
1111000001100000
1111000011000100
1110111111111100
1110111110011000
1110111110011000
1110111111001010
1110111111001010
1111000000101110
1110111110011000
1110111111001010
1110111101100110
1110111111111100
1111000001100000
1111000000101110
1111000001100000
1111000001100000
1110111111111100
1111000001100000
1111000010010010
1111000010010010
1111000000101110
1110111111111100
1110111101100110
1110111101100110
1110111111111100
1110111111111100
1110111110011000
1110111100110100
1110111010011110
1110111011010000
1110111100000010
1110111100110100
1110111100110100
1110111001101100
1110111010011110
1110111010011110
1110111100000010
1110111100000010
1110111010011110
1110111011010000
1110111001101100
1110111100110100
1110111100110100
1110111111001010
1111000001100000
1111000001100000
1111000011110110
1111000110111110
1111001011101010
1111001100011100
1111001101001110
1111001100011100
1111001100011100
1111001111100100
1111010001111010
1111010011011110
1111010010101100
1111010010101100
1111001111100100
1111010001111010
1111010011011110
1111010100010000
1111010001001000
1111010010101100
1111010001111010
1111010010101100
1111010100010000
1111010101000010
1111010101000010
1111010010101100
1111010010101100
1111010011011110
1111010101110100
1111010101110100
1111010101110100
1111010101000010
1111010010101100
1111010011011110
1111010101000010
1111010101000010
1111010010101100
1111010001111010
1111010000010110
1111010001111010
1111010001111010
1111010011011110
1111010010101100
1111010001001000
1111010000010110
1111001111100100
1111010001111010
1111010001001000
1111010000010110
1111001111100100
1111001101001110
1111001101001110
1111001110110010
1111001111100100
1111001110110010
1111001110110010
1111001101001110
1111001110000000
1111001111100100
1111001110000000
1111001110110010
1111001100011100
1111001100011100
1111001110000000
1111001111100100
1111001111100100
1111001111100100
1111001100011100
1111001011101010
1111001100011100
1111001110000000
1111001101001110
1111001101001110
1111001100011100
1111001011101010
1111001100011100
1111001101001110
1111001101001110
1111001110000000
1111001101001110
1111001100011100
1111001101001110
1111001110110010
1111010000010110
1111001101001110
1111001110110010
1111001011101010
1111001100011100
1111001111100100
1111001110000000
1111001100011100
1111001100011100
1111001011101010
1111001100011100
1111001100011100
1111001110000000
1111001110000000
1111001100011100
1111001100011100
1111001101001110
1111001110110010
1111001110110010
1111001110110010
1111001100011100
1111001100011100
1111001110000000
1111001110110010
1111010000010110
1111010000010110
1111010001111010
1111001110110010
1111010001001000
1111010101000010
1111011000001010
1111011000001010
1111010111011000
1111010110100110
1111011000001010
1111011011010010
1111011100000100
1111011100110110
1111011101101000
1111011101101000
1111011110011010
1111100000110000
1111011111111110
1111011111111110
1111011100110110
1111011011010010
1111011010100000
1111011100000100
1111011110011010
1111011010100000
1111011010100000
1111011000111100
1111011011010010
1111011111001100
1111100000110000
1111011101101000
1111011000001010
1111010101000010
1111010011011110
1111010001001000
1111010000010110
1111001110000000
1111001100011100
1111001101001110
1111001110000000
1111001100011100
1111001100011100
1111001011101010
1111001010111000
1111001010000110
1111001010111000
1111001011101010
1111001110000000
1111001101001110
1111001011101010
1111001010000110
1111001010000110
1111001010000110
1111001011101010
1111001010111000
1111001010000110
1111001000100010
1111001010111000
1111001010111000
1111001010111000
1111001010111000
1111001010000110
1111001000100010
1111000110111110
1111000110001100
1111000000101110
1110111010011110
1110110101000000
1110110010101010
1110101110110000
1110101100011010
1110110001000110
1110111111001010
1111010100010000
1111101010111010
0000001010001010
0000101110111000
0001011010101000
0001111110100100
0010010011101010
0010001111110000
0001111001000110
0001000101100010
0000000011001000
1111010001111010
1110111010011110
1110110110100100
1110111101100110
1111000100101000
1111000111110000
1111000111110000
1111000110001100
1111000100101000
1111000100101000
1111000101011010
1111000110001100
1111000110111110
1111000110001100
1111000011110110
1111000011110110
1111000101011010
1111000110001100
1111000110001100
1111000011110110
1111000010010010
1111000011110110
1111000011110110
1111000011000100
1111000011110110
1111000010010010
1110111111111100
1111000001100000
1111000010010010
1111000100101000
1111000010010010
1111000010010010
1111000001100000
1111000001100000
1111000010010010
1111000011000100
1111000011000100
1111000010010010
1111000000101110
1111000011000100
1111000011110110
1111000101011010
1111000101011010
1111000100101000
1111000011000100
1111000011110110
1111000110001100
1111000110001100
1111000110001100
1111000101011010
1111000011110110
1111000110001100
1111000011000100
1111000101011010
1111000110001100
1111000100101000
1111000011000100
1111000011000100
1111000011110110
1111000101011010
1111000101011010
1111000011110110
1111000010010010
1111000011000100
1111000011110110
1111000101011010
1111000100101000
1111000011110110
1111000011000100
1111000100101000
1111000100101000
1111000110001100
1111000110001100
1111000110111110
1111000011000100
1111000110111110
1111000110111110
1111000111110000
1111000101011010
1111000100101000
1111000001100000
1111000011000100
1111000101011010
1111000101011010
1111000110001100
1111000011110110
1111000011000100
1111000011000100
1111000011000100
1111000011000100
1111000101011010
1111000011110110
1111000010010010
1111000100101000
1111000110001100
1111000101011010
1111000101011010
1111000011000100
1111000000101110
1111000101011010
1111000110001100
1111000111110000
1111000101011010
1111000011110110
1111000100101000
1111000110001100
1111000111110000
1111001010000110
1111001010000110
1111001100011100
1111001100011100
1111001110110010
1111001111100100
1111010001111010
1111010011011110
1111010011011110
1111010001111010
1111010100010000
1111010101110100
1111010100010000
1111010100010000
1111010100010000
1111010010101100
1111010010101100
1111010100010000
1111010101000010
1111010100010000
1111010011011110
1111010010101100
1111010010101100
1111010100010000
1111010100010000
1111010011011110
1111010010101100
1111010001001000
1111010001111010
1111010011011110
1111010100010000
1111010011011110
1111010011011110
1111010001111010
1111010011011110
1111010100010000
1111010101000010
1111010100010000
1111010010101100
1111001111100100
1111010000010110
1111010011011110
1111010101110100
1111010101110100
1111010101000010
1111010011011110
1111010011011110
1111010101110100
1111010110100110
1111010110100110
1111010110100110
1111010100010000
1111010110100110
1111011001101110
1111011011010010
1111011011010010
1111011000111100
1111011000111100
1111011001101110
1111011110011010
1111011101101000
1111011001101110
1111011000001010
1111011100000100
1111011111111110
1111011111001100
1111011101101000
1111011100000100
1111011010100000
1111011010100000
1111011001101110
1111011000111100
1111010101110100
1111010011011110
1111001110110010
1111001110000000
1111001110000000
1111001111100100
1111001100011100
1111001010111000
1111001010000110
1111000111110000
1111000110111110
1111000111110000
1111001001010100
1111001000100010
1111000101011010
1111000011110110
1111000101011010
1111000110001100
1111000110111110
1111000110111110
1111000110001100
1111000100101000
1111000111110000
1111001001010100
1111001000100010
1111001000100010
1111001001010100
1111000110111110
1111001001010100
1111001001010100
1111001010111000
1111001000100010
1111001001010100
1111000101011010
1111000110111110
1111000101011010
1111000001100000
1110111100110100
1110110101110010
1110101110110000
1110101110110000
1110101010000100
1110100110111100
1110101011101000
1110111010011110
1111010000010110
1111101010001000
0000000011111010
0000101000101000
0001001111101100
0001110010110110
0010000100000010
0010001000101110
0001110010110110
0000111110100000
1111111100000110
1111001011101010
1110110101000000
1110110110100100
1110111111001010
1111000101011010
1111000110111110
1111000011110110
1111000001100000
1111000100101000
1111000011000100
1111000101011010
1111000011110110
1111000010010010
1111000000101110
1111000011000100
1111000100101000
1111000011110110
1111000011110110
1111000010010010
1111000001100000
1111000000101110
1111000001100000
1111000011000100
1111000011000100
1111000010010010
1111000001100000
1111000011000100
1111000011110110
1111000011000100
1111000011110110
1110111111111100
1110111110011000
1111000000101110
1110111111111100
1111000011000100
1111000011000100
1111000011000100
1111000001100000
1111000001100000
1111000011000100
1111000101011010
1111000100101000
1111000010010010
1111000001100000
1111000011000100
1111000001100000
1111000011000100
1111000010010010
1110111111111100
1110111111001010
1111000000101110
1111000011110110
1111000011110110
1111000100101000
1111000001100000
1111000001100000
1111000010010010
1111000011000100
1111000100101000
1111000101011010
1111000010010010
1111000010010010
1111000011110110
1111000100101000
1111000101011010
1111000011110110
1111000011000100
1111000001100000
1111000001100000
1111000011110110
1111000100101000
1111000010010010
1111000011000100
1111000001100000
1111000010010010
1111000011110110
1111000100101000
1111000011110110
1111000010010010
1111000000101110
1111000001100000
1111000011000100
1111000100101000
1111000100101000
1111000011110110
1111000000101110
1111000010010010
1111000001100000
1111000011000100
1111000001100000
1111000000101110
1110111101100110
1110111110011000
1111000000101110
1111000001100000
1111000000101110
1111000000101110
1110111111001010
1111000001100000
1111000011000100
1111000100101000
1111000011110110
1111000010010010
1111000000101110
1111000011000100
1111000110001100
1111000110001100
1111000110001100
1111000011110110
1111000110001100
1111001000100010
1111001010000110
1111001010111000
1111001011101010
1111001010111000
1111001000100010
1111001011101010
1111001101001110
1111001111100100
1111010000010110
1111010000010110
1111001110000000
1111001110110010
1111001111100100
1111010000010110
1111010000010110
1111001100011100
1111001101001110
1111001010000110
1111001101001110
1111001110110010
1111001110110010
1111010000010110
1111001111100100
1111001111100100
1111010001001000
1111010000010110
1111010000010110
1111001110110010
1111001110000000
1111001101001110
1111001110110010
1111010000010110
1111001110110010
1111001101001110
1111001101001110
1111001100011100
1111001110110010
1111001110110010
1111001111100100
1111001100011100
1111001010111000
1111001011101010
1111001100011100
1111001010000110
1111001000100010
1111000110111110
1111000110001100
1111001010000110
1111001010111000
1111001010111000
1111001010000110
1111000111110000
1111000110111110
1111000111110000
1111000111110000
1111001010000110
1111001000100010
1111000110111110
1111001001010100
1111000111110000
1111001001010100
1111001010111000
1111001010000110
1111001000100010
1111000110001100
1111001001010100
1111001001010100
1111001001010100
1111001010000110
1111001001010100
1111001000100010
1111000111110000
1111001010000110
1111001000100010
1111001001010100
1111000111110000
1111000110001100
1111001000100010
1111001000100010
1111001001010100
1111001000100010
1111000111110000
1111000011000100
1111000011110110
1111000111110000
1111000111110000
1111000110001100
1111000110001100
1111000011000100
1111000101011010
1111000110001100
1111001001010100
1111001010111000
1111001010000110
1111000111110000
1111000111110000
1111001001010100
1111001001010100
1111001011101010
1111000111110000
1111000110111110
1111000110111110
1111000111110000
1111000111110000
1111000110111110
1111000101011010
1111000011110110
1111000011110110
1111000110111110
1111000110001100
1111000101011010
1111000110001100
1111000101011010
1111000110111110
1111001000100010
1111001000100010
1111000111110000
1111000110111110
1111000110001100
1111000111110000
1111001001010100
1111001010111000
1111001010000110
1111001010111000
1111001001010100
1111001010000110
1111001001010100
1111000111110000
1111001001010100
1111000111110000
1111000110001100
1111000111110000
1111000111110000
1111001000100010
1111000111110000
1111000101011010
1111000101011010
1111000110001100
1111001001010100
1111001000100010
1111000111110000
1111000110111110
1111000101011010
1111000110001100
1111000110111110
1111000111110000
1111001000100010
1111000111110000
1111000111110000
1111001001010100
1111001010111000
1111001010000110
1111001010000110
1111001000100010
1111000111110000
1111000111110000
1111000110111110
1111001010000110
1111001000100010
1111001001010100
1111000111110000
1111001000100010
1111000111110000
1111001010000110
1111001011101010
1111001100011100
1111001100011100
1111001111100100
1111010000010110
1111010001001000
1111010000010110
1111010001111010
1111010000010110
1111010011011110
1111010101000010
1111010110100110
1111011000001010
1111011000001010
1111010111011000
1111010110100110
1111011000001010
1111011000001010
1111010111011000
1111010100010000
1111010010101100
1111010100010000
1111010101110100
1111011000001010
1111010101000010
1111010010101100
1111001110000000
1111010001001000
1111010001111010
1111010101110100
1111010110100110
1111010101110100
1111010011011110
1111010001001000
1111001111100100
1111001110110010
1111001110000000
1111001001010100
1111000110001100
1111000110111110
1111000110111110
1111000110111110
1111000110001100
1111000110001100
1111000110001100
1111000100101000
1111000111110000
1111000101011010
1111000101011010
1111000001100000
1110111110011000
1111000000101110
1111000001100000
1111000011110110
1111000100101000
1111000001100000
1110111111001010
1111000000101110
1111000010010010
1111000010010010
1111000010010010
1110111111111100
1110111100110100
1110111011010000
1110111000111010
1110110011011100
1110110100001110
1110101110110000
1110100110111100
1110100110001010
1110101101111110
1110111110011000
1111010000010110
1111100010010100
1111111100111000
0000100010011000
0001001011110010
0001101111101110
0010000100000010
0010001010010010
0001111011011100
0001010111100000
0000100011001010
1111110101000100
1111010011011110
1110111101100110
1110110001111000
1110101010000100
1110101100011010
1110110001111000
1110110111010110
1110111001101100
1110111001101100
1110111100000010
1110111110011000
1110111111111100
1110111111111100
1110111111001010
1110111110011000
1110111101100110
1110111110011000
1110111100110100
1110111100110100
1110111011010000
1110111001101100
1110111001101100
1110111100110100
1110111100110100
1110111100110100
1110111010011110
1110111010011110
1110111011010000
1110111101100110
1110111100110100
1110111100110100
1110111101100110
1110111010011110
1110111010011110
1110111100110100
1110111100000010
1110111100000010
1110111010011110
1110111010011110
1110111100000010
1110111100110100
1110111101100110
1110111100110100
1110111100110100
1110111011010000
1110111110011000
1110111100110100
1110111101100110
1110111100110100
1110111011010000
1110111011010000
1110111100110100
1110111100110100
1110111111001010
1110111101100110
1110111100110100
1110111000111010
1110111010011110
1110111010011110
1110111100110100
1110111100110100
1110111011010000
1110111011010000
1110111100000010
1110111100110100
1110111111001010
1110111111001010
1110111101100110
1110111101100110
1110111110011000
1111000000101110
1111000000101110
1110111111001010
1110111111001010
1110111101100110
1110111100110100
1111000000101110
1111000000101110
1111000000101110
1111000000101110
1110111100110100
1110111111001010
1110111111111100
1110111111001010
1110111100110100
1110111010011110
1110110111010110
1110111000001000
1110111001101100
1110111000111010
1110111000001000
1110110111010110
1110110100001110
1110110010101010
1110110101110010
1110110011011100
1110110001111000
1110110010101010
1110101111100010
1110110001111000
1110110100001110
1110110011011100
1110110100001110
1110110001111000
1110110001111000
1110110011011100
1110110101000000
1110111000001000
1110111000001000
1110110110100100
1110110111010110
1110111011010000
1110111100110100
1110111101100110
1110111111111100
1110111111111100
1111000001100000
1111000011000100
1111000100101000
1111001000100010
1111001001010100
1111001000100010
1111001001010100
1111001010111000
1111001100011100
1111001101001110
1111010000010110
1111001110000000
1111001110110010
1111010000010110
1111010001001000
1111010000010110
1111010000010110
1111001111100100
1111001100011100
1111001111100100
1111001110110010
1111001110110010
1111001110000000
1111001101001110
1111001101001110
1111001101001110
1111001111100100
1111001111100100
1111001110110010
1111001101001110
1111001100011100
1111001101001110
1111001101001110
1111001110110010
1111001110000000
1111001100011100
1111001011101010
1111001100011100
1111001110110010
1111001110000000
1111001110000000
1111001011101010
1111001011101010
1111001101001110
1111001101001110
1111001110000000
1111001110000000
1111001101001110
1111001001010100
1111001010000110
1111001010000110
1111001011101010
1111001010000110
1111001000100010
1111001000100010
1111001000100010
1111001010000110
1111001011101010
1111001011101010
1111001010000110
1111001000100010
1111001010111000
1111001011101010
1111001100011100
1111001011101010
1111001010000110
1111001001010100
1111001001010100
1111001010111000
1111001011101010
1111001100011100
1111000111110000
1111001000100010
1111001010000110
1111001011101010
1111001010000110
1111001001010100
1111000111110000
1111000100101000
1111000110001100
1111001010000110
1111001010000110
1111001001010100
1111001000100010
1111000110111110
1111000111110000
1111001010000110
1111001010000110
1111001001010100
1111000111110000
1111000111110000
1111001001010100
1111001000100010
1111001010111000
1111001010000110
1111001000100010
1111001000100010
1111001000100010
1111001010111000
1111001010111000
1111001010000110
1111000110111110
1111000110001100
1111001001010100
1111001100011100
1111001110000000
1111001110110010
1111010001111010
1111010000010110
1111010001111010
1111010001001000
1111010011011110
1111010101000010
1111010111011000
1111010101000010
1111010110100110
1111010111011000
1111011000111100
1111011001101110
1111011000001010
1111010110100110
1111010111011000
1111010111011000
1111011000111100
1111010111011000
1111010100010000
1111010100010000
1111010101000010
1111010011011110
1111010100010000
1111011000001010
1111011001101110
1111011001101110
1111010111011000
1111010011011110
1111010010101100
1111010001001000
1111001110000000
1111001011101010
1111001000100010
1111001001010100
1111001000100010
1111001000100010
1111000101011010
1111000011110110
1111000100101000
1111000111110000
1111001001010100
1111000111110000
1111000110111110
1111000110001100
1111000110001100
1111000110111110
1111000111110000
1111000110111110
1111000110001100
1111000011110110
1111000011110110
1111000110111110
1111000111110000
1111000100101000
1111000011110110
1111000010010010
1111000010010010
1111000011110110
1111000100101000
1111000010010010
1110111101100110
1110110111010110
1110110001111000
1110101111100010
1110101101001100
1110101000100000
1110100100100110
1110101101001100
1110111111111100
1111011000001010
1111101111100110
0000010000011010
0000110111011110
0001011101110000
0001111110100100
0010001011000100
0010000001101100
0001011010101000
0000011100111010
1111011111111110
1110111001101100
1110101101111110
1110110010101010
1110110111010110
1110111100000010
1110111111001010
1110111111001010
1110111111001010
1111000001100000
1111000010010010
1111000000101110
1110111101100110
1110111100000010
1110111111001010
1110111111001010
1110111111001010
1110111111001010
1110111100110100
1110111110011000
1110111111111100
1111000000101110
1110111110011000
1110111111111100
1110111110011000
1111000001100000
1111000010010010
1111000011110110
1111000001100000
1111000001100000
1111000001100000
1111000001100000
1111000010010010
1111000001100000
1111000001100000
1111000001100000
1110111111111100
1111000010010010
1110111111111100
1111000001100000
1111000010010010
1111000000101110
1110111111111100
1110111111001010
1111000000101110
1111000001100000
1111000010010010
1111000000101110
1110111111001010
1111000000101110
1110111111001010
1110111111111100
1111000000101110
1111000000101110
1110111111111100
1111000000101110
1111000001100000
1111000010010010
1111000000101110
1111000000101110
1111000001100000
1111000010010010
1111000011000100
1111000010010010
1111000011000100
1111000010010010
1110111110011000
1110111111001010
1111000000101110
1111000001100000
1111000001100000
1110111111001010
1110111110011000
1110111111111100
1111000010010010
1111000001100000
1111000000101110
1110111111001010
1110111100000010
1110111111001010
1110111111001010
1111000001100000
1111000000101110
1110111110011000
1110111100110100
1110111101100110
1110111111111100
1110111111111100
1111000000101110
1110111111001010
1110111101100110
1110111101100110
1110111110011000
1110111111111100
1110111111111100
1110111110011000
1110111100110100
1110111101100110
1110111110011000
1111000000101110
1110111111001010
1110111111111100
1110111111111100
1111000011110110
1111000110001100
1111000111110000
1111001001010100
1111001001010100
1111001001010100
1111001011101010
1111001110000000
1111010000010110
1111001110110010
1111001110110010
1111001110000000
1111010000010110
1111010000010110
1111010001111010
1111010010101100
1111010001111010
1111010001111010
1111010011011110
1111010011011110
1111010101110100
1111010100010000
1111010100010000
1111010001111010
1111010100010000
1111010011011110
1111010101000010
1111010011011110
1111010001111010
1111010000010110
1111010001111010
1111010011011110
1111010011011110
1111010010101100
1111010001001000
1111001111100100
1111010001111010
1111010001001000
1111010010101100
1111010011011110
1111010000010110
1111001111100100
1111010001001000
1111010001111010
1111010000010110
1111010001001000
1111010000010110
1111001110000000
1111001110000000
1111001111100100
1111010001001000
1111001111100100
1111001110000000
1111001010111000
1111001100011100
1111001111100100
1111001110110010
1111001101001110
1111001101001110
1111001010000110
1111001100011100
1111001110000000
1111001110000000
1111001011101010
1111001011101010
1111001000100010
1111001010111000
1111001110000000
1111001110110010
1111001100011100
1111001010111000
1111001010111000
1111001001010100
1111001100011100
1111001100011100
1111001010111000
1111001001010100
1111001000100010
1111001010000110
1111001011101010
1111001011101010
1111001010111000
1111001010111000
1111001010000110
1111001011101010
1111001011101010
1111001101001110
1111001101001110
1111001011101010
1111001010111000
1111001010111000
1111001110000000
1111001110110010
1111001110000000
1111001011101010
1111001011101010
1111001110000000
1111001101001110
1111001110110010
1111001110000000
1111001110000000
1111001010000110
1111001011101010
1111001110000000
1111001111100100
1111001110000000
1111001110000000
1111001010111000
1111001100011100
1111001110000000
1111001111100100
1111001111100100
1111001111100100
1111010001111010
1111010100010000
1111011000001010
1111011000111100
1111011000111100
1111011000001010
1111010111011000
1111011010100000
1111011101101000
1111011100000100
1111011100000100
1111011110011010
1111011101101000
1111011100110110
1111011100000100
1111011100000100
1111011011010010
1111011001101110
1111011000001010
1111011010100000
1111011011010010
1111011001101110
1111011011010010
1111011100000100
1111011101101000
1111100001100010
1111011101101000
1111011001101110
1111010111011000
1111010101110100
1111010010101100
1111010001001000
1111010000010110
1111010000010110
1111001110000000
1111001100011100
1111001001010100
1111001001010100
1111001011101010
1111001011101010
1111001011101010
1111001010111000
1111001001010100
1111001001010100
1111001010000110
1111001011101010
1111001010000110
1111001000100010
1111000110001100
1111001001010100
1111001010000110
1111001011101010
1111001011101010
1111001011101010
1111001000100010
1111001000100010
1111001010000110
1111001000100010
1111000010010010
1110111001101100
1110110101000000
1110110001000110
1110101101111110
1110101010110110
1110110001111000
1111000010010010
1111011000001010
1111110101000100
0000010110101010
0001000010011010
0001101011000010
0010001000101110
0010010000100010
0001111100001110
0001001001011100
0000000011001000
1111001101001110
1110110110100100
1110110100001110
1110111111111100
1111000110111110
1111001000100010
1111000110111110
1111000100101000
1111000011110110
1111000100101000
1111000110001100
1111000110001100
1111000101011010
1111000011110110
1111000010010010
1111000011110110
1111000100101000
1111000011110110
1111000101011010
1111000011000100
1111000000101110
1111000000101110
1111000011000100
1111000011110110
1111000011110110
1111000011000100
1110111111111100
1111000001100000
1111000011000100
1111000011110110
1111000011110110
1111000010010010
1111000011000100
1111000010010010
1111000100101000
1111000101011010
1111000100101000
1111000011110110
1111000001100000
1111000011110110
1111000100101000
1111000101011010
1111000100101000
1111000010010010
1111000010010010
1111000011110110
1111000101011010
1111000110001100
1111000110111110
1111000011110110
1111000010010010
1111000011110110
1111000011110110
1111000110001100
1111000101011010
1111000110001100
1111000101011010
1111000101011010
1111000110001100
1111001000100010
1111000110111110
1111000100101000
1111000101011010
1111000110001100
1111000100101000
1111000110111110
1111000110001100
1111000101011010
1111000011000100
1111000100101000
1111000101011010
1111000100101000
1111000110001100
1111000101011010
1111000100101000
1111000011110110
1111000011110110
1111000110001100
1111000101011010
1111000101011010
1111000100101000
1111000100101000
1111000100101000
1111000100101000
1111000101011010
1111000011000100
1111000010010010
1111000011110110
1111000011110110
1111000101011010
1111000101011010
1111000011110110
1111000011110110
1111000011000100
1111000110001100
1111000110111110
1111000110111110
1111000101011010
1111000011110110
1111001001010100
1111001010000110
1111001101001110
1111001101001110
1111001100011100
1111001101001110
1111001101001110
1111001110110010
1111001110110010
1111001110110010
1111010001001000
1111010001001000
1111010011011110
1111010101110100
1111010110100110
1111010111011000
1111010101000010
1111010011011110
1111010110100110
1111011000001010
1111011000111100
1111010101110100
1111010100010000
1111010011011110
1111010011011110
1111010100010000
1111010101110100
1111010101110100
1111010101110100
1111010011011110
1111010100010000
1111010101000010
1111010101110100
1111010110100110
1111010101000010
1111010010101100
1111010011011110
1111010011011110
1111010101000010
1111010101110100
1111010100010000
1111010001111010
1111010100010000
1111010101110100
1111010101110100
1111010101000010
1111010011011110
1111010001001000
1111010001111010
1111010010101100
1111010001111010
1111010001001000
1111010010101100
1111010000010110
1111010001111010
1111010010101100
1111010001111010
1111010010101100
1111001111100100
1111001110000000
1111001110110010
1111001110110010
1111010001001000
1111010000010110
1111001110110010
1111001100011100
1111001110000000
1111010000010110
1111001110110010
1111010000010110
1111001110110010
1111001101001110
1111001111100100
1111010001111010
1111010001001000
1111010000010110
1111001111100100
1111001101001110
1111001110110010
1111001110110010
1111010000010110
1111010000010110
1111001101001110
1111001110000000
1111001110000000
1111001111100100
1111010000010110
1111001110000000
1111001110000000
1111001110000000
1111001111100100
1111010000010110
1111010010101100
1111010011011110
1111010010101100
1111010000010110
1111001111100100
1111010001001000
1111010001001000
1111001111100100
1111001110110010
1111001110110010
1111001111100100
1111010001111010
1111010001001000
1111010001111010
1111001110110010
1111001111100100
1111010010101100
1111010110100110
1111011010100000
1111011000001010
1111011010100000
1111011000111100
1111011100110110
1111011100110110
1111011110011010
1111011111001100
1111100000110000
1111100001100010
1111100001100010
1111100011111000
1111100100101010
1111100011111000
1111011111111110
1111011110011010
1111011111001100
1111011111001100
1111011111001100
1111011111001100
1111011110011010
1111011100110110
1111011111001100
1111100011111000
1111100101011100
1111100011000110
1111011010100000
1111011000001010
1111011000001010
1111010101110100
1111010101000010
1111010011011110
1111010001001000
1111010001001000
1111001110110010
1111010000010110
1111010001001000
1111010001111010
1111010001001000
1111001110110010
1111001111100100
1111001111100100
1111010001001000
1111010001001000
1111010000010110
1111001110110010
1111001101001110
1111001110000000
1111001110000000
1111001110000000
1111001101001110
1111001010111000
1111001011101010
1111001101001110
1111001110110010
1111001110000000
1111001010000110
1111000110001100
1111000010010010
1110111101100110
1110111010011110
1110110111010110
1110110000010100
1110101101001100
1110110100001110
1111000110001100
1111011011010010
1111110001111100
0000010000011010
0000111010100110
0001100110010110
0010000000001000
0010000111001010
0001110010110110
0001000110010100
0000001001011000
1111010101110100
1110111100110100
1110111000001000
1110111111001010
1111000011110110
1111000110111110
1111001000100010
1111001000100010
1111001010000110
1111001001010100
1111001001010100
1111000111110000
1111001010000110
1111001010111000
1111001010111000
1111001011101010
1111001011101010
1111001000100010
1111001010000110
1111001010111000
1111001011101010
1111001010111000
1111001001010100
1111000110111110
1111000111110000
1111000110111110
1111001001010100
1111001010000110
1111000110111110
1111000111110000
1111001001010100
1111001000100010
1111001001010100
1111001000100010
1111001001010100
1111000111110000
1111001011101010
1111001011101010
1111001100011100
1111001010111000
1111001001010100
1111001001010100
1111001010000110
1111001011101010
1111001010000110
1111001000100010
1111001000100010
1111000110001100
1111001000100010
1111001001010100
1111001010000110
1111000110111110
1111000110111110
1111000110001100
1111000110111110
1111001000100010
1111001010000110
1111001010000110
1111001010000110
1111001010111000
1111001011101010
1111001101001110
1111001011101010
1111001010000110
1111001001010100
1111001001010100
1111001000100010
1111001000100010
1111000111110000
1111001001010100
1111000111110000
1111000110111110
1111001010000110
1111001010000110
1111001100011100
1111001001010100
1111001010000110
1111001000100010
1111001001010100
1111001010111000
1111001011101010
1111001001010100
1111000110111110
1111000100101000
1111000011110110
1111001000100010
1111000111110000
1111001000100010
1111000110001100
1111000011110110
1111000110001100
1111000110001100
1111001001010100
1111001010000110
1111000110111110
1111000110111110
1111000111110000
1111001010000110
1111001100011100
1111001100011100
1111001100011100
1111001011101010
1111001110110010
1111001111100100
1111010011011110
1111010010101100
1111010010101100
1111010001001000
1111010100010000
1111010101000010
1111010111011000
1111010111011000
1111010101110100
1111010110100110
1111011000001010
1111011000111100
1111011001101110
1111011001101110
1111011000001010
1111010110100110
1111010111011000
1111011000001010
1111011010100000
1111011000111100
1111011000001010
1111010101000010
1111010101000010
1111010110100110
1111010101110100
1111010101000010
1111010100010000
1111010010101100
1111010100010000
1111010101000010
1111010101110100
1111010101110100
1111010100010000
1111010010101100
1111010100010000
1111010011011110
1111010101000010
1111010010101100
1111010100010000
1111010010101100
1111010100010000
1111010011011110
1111010101000010
1111010100010000
1111010001111010
1111010000010110
1111010001001000
1111010001001000
1111010000010110
1111001110110010
1111001110000000
1111001111100100
1111001111100100
1111010001001000
1111001111100100
1111001111100100
1111001110000000
1111001101001110
1111001111100100
1111001110000000
1111001111100100
1111001111100100
1111001110110010
1111001101001110
1111001110110010
1111010000010110
1111001110110010
1111001111100100
1111001110000000
1111001101001110
1111001101001110
1111001110000000
1111010000010110
1111010000010110
1111010001001000
1111001110110010
1111010001001000
1111001111100100
1111001110110010
1111010000010110
1111001111100100
1111001110000000
1111001111100100
1111010001001000
1111010001111010
1111010001001000
1111001110110010
1111001101001110
1111001101001110
1111010000010110
1111001111100100
1111010010101100
1111001110110010
1111001101001110
1111001110000000
1111010010101100
1111010100010000
1111010111011000
1111010111011000
1111010110100110
1111010111011000
1111011000111100
1111011100000100
1111011101101000
1111011101101000
1111011011010010
1111011101101000
1111011111111110
1111011111111110
1111011111001100
1111011111001100
1111011100000100
1111011010100000
1111011100000100
1111011100110110
1111011011010010
1111011000111100
1111010110100110
1111010111011000
1111011001101110
1111011110011010
1111011110011010
1111011001101110
1111010100010000
1111010101000010
1111010101000010
1111010001111010
1111001111100100
1111001101001110
1111001010111000
1111001010111000
1111001101001110
1111001110110010
1111001111100100
1111001110110010
1111001100011100
1111001100011100
1111001101001110
1111001101001110
1111001011101010
1111001010000110
1111001001010100
1111001001010100
1111001001010100
1111001010000110
1111001001010100
1111000110111110
1111000111110000
1111001001010100
1111001000100010
1111001010000110
1111001010000110
1111001001010100
1111000110111110
1111000100101000
1111000000101110
1110111101100110
1110111011010000
1110110110100100
1110101110110000
1110101011101000
1110110011011100
1111000011000100
1111010111011000
1111101110000010
0000001101010010
0000111000010000
0001100000000110
0001111001111000
0010000010011110
0001110000100000
0001000000000100
0000000100101100
1111011000001010
1110111111001010
1110110110100100
1110110111010110
1110111100000010
1111000010010010
1111000101011010
1111000110001100
1111000101011010
1111000101011010
1111000011000100
1111000001100000
1111000100101000
1111000011110110
1111000011110110
1111000011110110
1111000011110110
1111000110001100
1111000110001100
1111000111110000
1111000100101000
1111000100101000
1111000011110110
1111000110001100
1111000110001100
1111000110111110
1111000101011010
1111000011110110
1111000011000100
1111000011000100
1111000011110110
1111000011110110
1111000010010010
1111000011000100
1111000001100000
1111000000101110
1111000011000100
1111000010010010
1111000011000100
1111000000101110
1111000000101110
1111000001100000
1111000101011010
1111000100101000
1111000011000100
1111000010010010
1111000010010010
1111000011000100
1111000011000100
1111000011110110
1111000000101110
1111000001100000
1111000000101110
1111000010010010
1111000011000100
1111000010010010
1111000011000100
1111000001100000
1111000000101110
1111000000101110
1111000011000100
1111000011000100
1111000010010010
1111000001100000
1111000001100000
1111000010010010
1111000100101000
1111000110001100
1111000100101000
1111000011110110
1111000010010010
1111000011000100
1111000100101000
1111000100101000
1111000011110110
1111000011000100
1111000011000100
1111000001100000
1111000001100000
1111000000101110
1110111111001010
1110111110011000
1110111100110100
1110111100110100
1110111101100110
1110111110011000
1110111100110100
1110111010011110
1110110111010110
1110111000111010
1110111011010000
1110111101100110
1110111100000010
1110111001101100
1110111011010000
1110111010011110
1110111101100110
1110111101100110
1110111101100110
1110111100110100
1110111100110100
1110111111001010
1110111111001010
1111000011110110
1111000101011010
1111000011110110
1111000110001100
1111000111110000
1111001001010100
1111001011101010
1111001011101010
1111001101001110
1111001110000000
1111001101001110
1111010000010110
1111010001111010
1111010001001000
1111010010101100
1111010001111010
1111010010101100
1111010010101100
1111010011011110
1111010011011110
1111010011011110
1111010010101100
1111010010101100
1111010011011110
1111010101110100
1111010101110100
1111010100010000
1111010010101100
1111010011011110
1111010101000010
1111010101000010
1111010101000010
1111010010101100
1111010000010110
1111010000010110
1111010001001000
1111010100010000
1111010010101100
1111010000010110
1111001110110010
1111001111100100
1111010001111010
1111010010101100
1111010001001000
1111010000010110
1111010000010110
1111001111100100
1111010001001000
1111010001111010
1111010000010110
1111010000010110
1111001110110010
1111001111100100
1111001111100100
1111010001111010
1111010001001000
1111010000010110
1111001111100100
1111010000010110
1111010000010110
1111010001111010
1111010001001000
1111001110110010
1111001101001110
1111001110000000
1111001110000000
1111001110110010
1111001111100100
1111001101001110
1111001011101010
1111001100011100
1111001110000000
1111001110000000
1111001111100100
1111001100011100
1111001100011100
1111001101001110
1111001111100100
1111010000010110
1111010000010110
1111001110000000
1111001100011100
1111001101001110
1111010001001000
1111001111100100
1111010000010110
1111001110110010
1111001100011100
1111001100011100
1111001100011100
1111001110000000
1111001101001110
1111001101001110
1111001011101010
1111001101001110
1111001110110010
1111001111100100
1111001110110010
1111001110000000
1111001101001110
1111001110110010
1111001111100100
1111010000010110
1111001111100100
1111001110110010
1111001110000000
1111001110110010
1111001111100100
1111010001111010
1111010001111010
1111010000010110
1111001111100100
1111010001001000
1111010100010000
1111010101000010
1111010110100110
1111010101000010
1111010101000010
1111010111011000
1111011010100000
1111011010100000
1111011011010010
1111011010100000
1111011011010010
1111011100110110
1111011110011010
1111011111111110
1111011111111110
1111011111001100
1111011110011010
1111011101101000
1111011101101000
1111011110011010
1111011101101000
1111011101101000
1111011100000100
1111011100000100
1111011010100000
1111011111001100
1111011101101000
1111011100000100
1111011000001010
1111011011010010
1111011111001100
1111100010010100
1111011111111110
1111011100110110
1111010111011000
1111010101000010
1111010100010000
1111010011011110
1111010000010110
1111001110000000
1111001110110010
1111001011101010
1111001101001110
1111001011101010
1111001110000000
1111001101001110
1111001110000000
1111001101001110
1111001101001110
1111001111100100
1111010000010110
1111001110000000
1111001110000000
1111001100011100
1111001110000000
1111001110000000
1111001100011100
1111001100011100
1111000111110000
1111001000100010
1111001100011100
1111001101001110
1111001101001110
1111001011101010
1111001001010100
1111001010111000
1111001010000110
1111001000100010
1111000011110110
1110111101100110
1110111001101100
1110110110100100
1110110100001110
1110110000010100
1110101111100010
1110111000111010
1111001101001110
1111100110001110
0000000001100100
0000100111000100
0001010000011110
0001110011101000
0010001010010010
0010010010000110
0010000010011110
0001010010000010
0000010010110000
1111011100000100
1110111101100110
1110111000111010
1110111110011000
1111000100101000
1111000111110000
1111000110111110
1111000101011010
1111000100101000
1111001000100010
1111001000100010
1111000110001100
1111000101011010
1111000011110110
1111000100101000
1111000110111110
1111000110001100
1111000110001100
1111000110111110
1111000100101000
1111000110001100
1111000101011010
1111000110111110
1111000110001100
1111000100101000
1111000101011010
1111000110111110
1111000111110000
1111000111110000
1111001000100010
1111001000100010
1111000110001100
1111000110111110
1111001000100010
1111001001010100
1111001001010100
1111001001010100
1111000111110000
1111000111110000
1111000111110000
1111001001010100
1111001000100010
1111000110111110
1111000110001100
1111000111110000
1111001001010100
1111001000100010
1111001001010100
1111001000100010
1111000110001100
1111000101011010
1111000111110000
1111001001010100
1111001010000110
1111001001010100
1111000110001100
1111000110001100
1111001000100010
1111001001010100
1111001010000110
1111000111110000
1111000110001100
1111000110111110
1111000111110000
1111001001010100
1111001000100010
1111000110111110
1111000110111110
1111000110001100
1111000110111110
1111001001010100
1111001001010100
1111000111110000
1111000111110000
1111001000100010
1111001010000110
1111001001010100
1111001010000110
1111001000100010
1111000110001100
1111000110111110
1111001000100010
1111000111110000
1111000110111110
1111000110111110
1111000100101000
1111000011110110
1111000101011010
1111000110001100
1111000101011010
1111000011110110
1111000010010010
1111000101011010
1111000011110110
1111000100101000
1111000110001100
1111000011110110
1111000011110110
1111000100101000
1111000110001100
1111000111110000
1111001001010100
1111001011101010
1111001100011100
1111001110110010
1111010001111010
1111010010101100
1111010010101100
1111010011011110
1111010010101100
1111010100010000
1111010100010000
1111010111011000
1111011000001010
1111010101110100
1111010101000010
1111010111011000
1111011000111100
1111011001101110
1111011000111100
1111010111011000
1111010110100110
1111011001101110
1111011011010010
1111011001101110
1111011010100000
1111011000111100
1111010110100110
1111011000111100
1111011000111100
1111011000111100
1111011000111100
1111011000001010
1111010110100110
1111010111011000
1111011010100000
1111011000111100
1111011001101110
1111011000111100
1111010101110100
1111010110100110
1111010101110100
1111010110100110
1111010110100110
1111010101000010
1111010011011110
1111010101000010
1111010110100110
1111010101110100
1111010101110100
1111010100010000
1111010011011110
1111010011011110
1111010100010000
1111010011011110
1111010100010000
1111010011011110
1111010001001000
1111010010101100
1111010011011110
1111010101110100
1111010100010000
1111010001111010
1111010010101100
1111010010101100
1111010001111010
1111010010101100
1111010011011110
1111010000010110
1111001110110010
1111001111100100
1111001111100100
1111010010101100
1111010001111010
1111001111100100
1111001110000000
1111001110110010
1111001111100100
1111010001001000
1111010001001000
1111001110110010
1111001110000000
1111001110110010
1111001110000000
1111010010101100
1111010001001000
1111010001001000
1111001110110010
1111001111100100
1111010001001000
1111010001001000
1111010010101100
1111001111100100
1111001101001110
1111001110110010
1111010000010110
1111010000010110
1111010000010110
1111001110110010
1111001101001110
1111001110000000
1111001111100100
1111010001001000
1111010001111010
1111001110110010
1111001110000000
1111010000010110
1111010001001000
1111010010101100
1111010001111010
1111010001111010
1111001111100100
1111010001111010
1111010001111010
1111010011011110
1111010001111010
1111010001111010
1111001111100100
1111010001001000
1111010011011110
1111010100010000
1111010101000010
1111010100010000
1111010110100110
1111011001101110
1111011100000100
1111011010100000
1111011010100000
1111011010100000
1111011001101110
1111011101101000
1111011101101000
1111011110011010
1111100000110000
1111100000110000
1111011111001100
1111011111111110
1111100001100010
1111011111111110
1111011111001100
1111011110011010
1111011100110110
1111011100110110
1111100000110000
1111100000110000
1111011111001100
1111011100110110
1111011101101000
1111100001100010
1111100011111000
1111100100101010
1111011111111110
1111011001101110
1111010110100110
1111010101000010
1111010100010000
1111010011011110
1111010001001000
1111001111100100
1111001101001110
1111001110000000
1111001101001110
1111001111100100
1111001101001110
1111001100011100
1111001010111000
1111001011101010
1111001100011100
1111001101001110
1111001110000000
1111001010111000
1111001010000110
1111001010111000
1111001100011100
1111001011101010
1111001100011100
1111001010111000
1111001010111000
1111001011101010
1111001011101010
1111001100011100
1111001011101010
1111001010000110
1111000101011010
1111000010010010
1110111100110100
1110111011010000
1110111001101100
1110111001101100
1110110101110010
1110110101000000
1110110000010100
1110101010000100
1110100110001010
1110101010110110
1110110011011100
1111000101011010
1111011000111100
1111101101010000
0000001001011000
0000101100100010
0001010010000010
0001110011101000
0010000110011000
0010001011000100
0001110010000100
0001000010011010
0000000010010110
1111010011011110
1110111100000010
1110111001101100
1110111100000010
1111000011110110
1111000100101000
1111000110001100
1111000110001100
1111000110001100
1111000111110000
1111000111110000
1111000110001100
1111000011110110
1111000110111110
1111000111110000
1111000110111110
1111000110111110
1111000101011010
1111000011110110
1111000111110000
1111000110111110
1111001000100010
1111000101011010
1111000100101000
1111000101011010
1111001000100010
1111001000100010
1111000111110000
1111000110111110
1111000100101000
1111000110001100
1111001000100010
1111001001010100
1111001000100010
1111000110111110
1111000100101000
1111000110111110
1111001000100010
1111001000100010
1111000110111110
1111000011110110
1111000011000100
1111000101011010
1111001000100010
1111000110111110
1111000111110000
1111001000100010
1111000110111110
1111000110111110
1111001000100010
1111001010000110
1111001010000110
1111000110111110
1111000111110000
1111000101011010
1111001000100010
1111000111110000
1111000110111110
1111000110111110
1111000110001100
1111000111110000
1111001000100010
1111000111110000
1111000110111110
1111000011110110
1111000100101000
1111000110111110
1111001000100010
1111001011101010
1111000111110000
1111000111110000
1111000011110110
1111000100101000
1111000101011010
1111000111110000
1111000111110000
1111000110111110
1111000101011010
1111000110111110
1111001000100010
1111000111110000
1111001001010100
1111000111110000
1111000110001100
1111000110001100
1111000110111110
1111000110001100
1111000100101000
1111000011000100
1111000011110110
1111000100101000
1111000110001100
1111000110001100
1111000110111110
1111000110111110
1111000011000100
1111000101011010
1111000110001100
1111001000100010
1111000110111110
1111000111110000
1111000110001100
1111001001010100
1111001010111000
1111001101001110
1111001110000000
1111001110110010
1111001101001110
1111001111100100
1111010001111010
1111010011011110
1111010010101100
1111010010101100
1111010101000010
1111010101110100
1111010110100110
1111010111011000
1111010111011000
1111010101000010
1111010101000010
1111010011011110
1111010111011000
1111010111011000
1111010110100110
1111010101110100
1111010100010000
1111010101000010
1111011000001010
1111011000001010
1111011001101110
1111011000001010
1111010111011000
1111011000001010
1111011000001010
1111010111011000
1111010110100110
1111010100010000
1111010001111010
1111010010101100
1111010101000010
1111010100010000
1111010100010000
1111010100010000
1111010011011110
1111010011011110
1111010100010000
1111010101110100
1111010011011110
1111010001001000
1111001111100100
1111010001001000
1111010010101100
1111010100010000
1111010001001000
1111010010101100
1111001111100100
1111010001001000
1111010001111010
1111010010101100
1111010011011110
1111010001111010
1111001101001110
1111001110110010
1111001111100100
1111010000010110
1111010001001000
1111001110110010
1111001100011100
1111001110000000
1111001110000000
1111001110110010
1111001110000000
1111001101001110
1111001011101010
1111001100011100
1111001101001110
1111001111100100
1111001110110010
1111001110110010
1111001011101010
1111001110000000
1111001111100100
1111001110110010
1111001111100100
1111001110000000
1111001011101010
1111001101001110
1111001101001110
1111001110110010
1111001111100100
1111001110000000
1111001100011100
1111001110000000
1111001110000000
1111001111100100
1111001100011100
1111001100011100
1111001010000110
1111001010111000
1111001100011100
1111001110000000
1111001110110010
1111001011101010
1111001011101010
1111001100011100
1111001111100100
1111001111100100
1111001110110010
1111001100011100
1111001110000000
1111001110110010
1111010001001000
1111010011011110
1111010100010000
1111010110100110
1111010111011000
1111010110100110
1111010111011000
1111011000001010
1111010111011000
1111011000111100
1111011000001010
1111011010100000
1111011100000100
1111011111111110
1111011111001100
1111011100110110
1111011011010010
1111011100110110
1111011100110110
1111011100000100
1111011100110110
1111011010100000
1111011010100000
1111011100000100
1111011011010010
1111011000111100
1111011000111100
1111011000001010
1111011011010010
1111011101101000
1111011111111110
1111011110011010
1111011010100000
1111010110100110
1111010100010000
1111010100010000
1111010101110100
1111010101110100
1111010010101100
1111001110000000
1111001011101010
1111001010111000
1111001100011100
1111001100011100
1111001011101010
1111001001010100
1111000111110000
1111001001010100
1111001001010100
1111001010000110
1111001001010100
1111001000100010
1111000110111110
1111000111110000
1111001000100010
1111001001010100
1111001010111000
1111000111110000
1111000110001100
1111000110001100
1111001000100010
1111001010000110
1111001001010100
1111000110001100
1111000011110110
1110111111111100
1110111011010000
1110111000001000
1110110011011100
1110101011101000
1110100111101110
1110101010000100
1110110100001110
1111000110111110
1111011000001010
1111101100011110
0000001110000100
0000111000010000
0001011101110000
0001110101001100
0001111100001110
0001101101011000
0001000100110000
0000001110110110
1111100011000110
1111000110001100
1110110110100100
1110110011011100
1110110110100100
1110111011010000
1110111101100110
1110111111111100
1110111111111100
1110111111111100
1110111110011000
1111000001100000
1111000010010010
1111000000101110
1110111111111100
1111000000101110
1110111110011000
1111000010010010
1111000010010010
1111000011000100
1111000010010010
1111000010010010
1110111111111100
1111000001100000
1111000001100000
1110111111111100
1111000001100000
1111000000101110
1110111111111100
1110111111111100
1111000001100000
1111000011000100
1111000011000100
1111000001100000
1111000001100000
1111000010010010
1111000011000100
1111000011110110
1111000011000100
1110111111111100
1110111111111100
1110111111111100
1110111111001010
1110111111111100
1111000000101110
1110111110011000
1110111110011000
1110111110011000
1110111111001010
1110111111111100
1110111111001010
1110111101100110
1110111101100110
1110111110011000
1110111101100110
1110111110011000
1110111111111100
1110111111111100
1110111111001010
1110111111111100
1110111111111100
1111000001100000
1111000000101110
1111000000101110
1110111101100110
1110111110011000
1110111111111100
1111000001100000
1111000000101110
1110111111001010
1110111110011000
1110111111111100
1110111111111100
1111000001100000
1110111111111100
1110111111001010
1110111110011000
1110111111111100
1111000001100000
1111000011000100
1111000001100000
1110111111001010
1110111110011000
1110111111001010
1110111111001010
1111000001100000
1110111111001010
1110111100110100
1110111001101100
1110111011010000
1110111011010000
1110111100000010
1110111100000010
1110111011010000
1110111001101100
1110111100000010
1110111011010000
1110111100110100
1110111011010000
1110111010011110
1110111010011110
1110111011010000
1110111100000010
1110111110011000
1110111111001010
1110111111111100
1111000000101110
1111000100101000
1111000101011010
1111000110001100
1111000110001100
1111000110001100
1111000111110000
1111001000100010
1111001101001110
1111010000010110
1111001111100100
1111001110000000
1111001101001110
1111001101001110
1111001110110010
1111010001001000
1111010000010110
1111001110000000
1111001100011100
1111001100011100
1111001111100100
1111001111100100
1111001111100100
1111010000010110
1111001111100100
1111001110000000
1111010000010110
1111010001001000
1111010001001000
1111010000010110
1111001110000000
1111001110000000
1111001110110010
1111001110110010
1111001111100100
1111001100011100
1111001011101010
1111001011101010
1111001110000000
1111001110110010
1111001110110010
1111001101001110
1111001100011100
1111001011101010
1111001110000000
1111010001001000
1111010001001000
1111001110000000
1111001110000000
1111001100011100
1111001110000000
1111001110000000
1111001101001110
1111001010111000
1111001000100010
1111001010000110
1111001001010100
1111001010000110
1111001010000110
1111000111110000
1111000111110000
1111001010000110
1111001010111000
1111001010111000
1111001000100010
1111001001010100
1111001001010100
1111001000100010
1111001010111000
1111001011101010
1111001010111000
1111001001010100
1111001000100010
1111001000100010
1111001000100010
1111001010000110
1111001010000110
1111001001010100
1111000111110000
1111000110111110
1111000110111110
1111001001010100
1111001001010100
1111000111110000
1111000110001100
1111000111110000
1111001001010100
1111001011101010
1111001001010100
1111001001010100
1111001010000110
1111001010111000
1111001010111000
1111001010111000
1111001010111000
1111001010000110
1111001001010100
1111000111110000
1111001001010100
1111001011101010
1111001010000110
1111001001010100
1111001001010100
1111001000100010
1111001010111000
1111001011101010
1111001100011100
1111001010111000
1111001000100010
1111001000100010
1111001100011100
1111001110110010
1111001110110010
1111001110110010
1111001110000000
1111010001001000
1111010001001000
1111010100010000
1111010110100110
1111010100010000
1111010011011110
1111010110100110
1111011011010010
1111011100000100
1111011100000100
1111011001101110
1111011000001010
1111011000111100
1111011001101110
1111011000111100
1111011000001010
1111010110100110
1111010101110100
1111010010101100
1111010100010000
1111010101000010
1111010111011000
1111011000001010
1111010111011000
1111010101000010
1111010001111010
1111010001001000
1111010000010110
1111001011101010
1111001000100010
1111001001010100
1111001001010100
1111001001010100
1111001000100010
1111000110001100
1111000110001100
1111000111110000
1111000110111110
1111001000100010
1111000110111110
1111000101011010
1111000011110110
1111000100101000
1111000101011010
1111001000100010
1111000110001100
1111000011110110
1111000011000100
1111000011000100
1111000110001100
1111000111110000
1111000110001100
1111000100101000
1111000011110110
1111000100101000
1111000101011010
1111000110001100
1111000100101000
1111000000101110
1110111010011110
1110110111010110
1110110101000000
1110110100001110
1110101101111110
1110101001010010
1110101100011010
1110111001101100
1111001101001110
1111100011000110
1111111100000110
0000011100111010
0001000011001100
0001100111001000
0001111111010110
0010000100110100
0001110101001100
0001001011110010
0000010001001100
1111011111001100
1111000011000100
1110111000001000
1110110100001110
1110110110100100
1110111001101100
1110111101100110
1110111111001010
1111000000101110
1110111111001010
1110111111001010
1110111110011000
1111000001100000
1111000010010010
1111000011110110
1111000010010010
1111000001100000
1110111110011000
1110111111111100
1111000001100000
1111000001100000
1111000000101110
1111000000101110
1110111100000010
1110111110011000
1110111111111100
1111000000101110
1110111111001010
1110111100110100
1110111011010000
1110111100000010
1110111111001010
1110111110011000
1110111100110100
1110111111001010
1110111100110100
1110111101100110
1110111110011000
1110111110011000
1110111111001010
1110111101100110
1110111101100110
1110111110011000
1110111111111100
1110111111111100
1110111111111100
1110111110011000
1110111100110100
1110111110011000
1110111111001010
1111000010010010
1111000000101110
1110111111001010
1110111100110100
1110111110011000
1110111110011000
1110111111001010
1110111110011000
1110111101100110
1110111011010000
1110111100110100
1110111101100110
1110111111001010
1110111110011000
1110111101100110
1110111011010000
1110111100110100
1110111100110100
1110111101100110
1110111110011000
1110111111001010
1110111101100110
1110111100110100
1110111101100110
1110111111001010
1111000000101110
1111000000101110
1110111101100110
1110111111001010
1110111110011000
1110111110011000
1110111110011000
1110111100000010
1110111100000010
1110111011010000
1110111110011000
1110111100110100
1110111001101100
1110111000111010
1110110111010110
1110110111010110
1110110111010110
1110110111010110
1110110111010110
1110110110100100
1110110011011100
1110110100001110
1110111000001000
1110111000111010
1110111000001000
1110111000111010
1110111000111010
1110111011010000
1110111101100110
1110111111001010
1111000001100000
1111000000101110
1111000001100000
1111000011110110
1111000110111110
1111000110111110
1111000111110000
1111000110001100
1111000101011010
1111001000100010
1111001010111000
1111001100011100
1111001100011100
1111001100011100
1111001010111000
1111001011101010
1111001110000000
1111010000010110
1111001110110010
1111001110000000
1111001110000000
1111001110000000
1111001110110010
1111001111100100
1111001111100100
1111001110110010
1111001100011100
1111001110000000
1111001110000000
1111001111100100
1111001110000000
1111001100011100
1111001010111000
1111001100011100
1111001101001110
1111001101001110
1111001110000000
1111001010111000
1111001001010100
1111001010111000
1111001110000000
1111001110110010
1111001101001110
1111001010111000
1111001010000110
1111001010000110
1111001010111000
1111001100011100
1111001011101010
1111001010000110
1111000111110000
1111001000100010
1111001010111000
1111001100011100
1111001011101010
1111001010000110
1111000110111110
1111000110001100
1111001001010100
1111001010111000
1111001011101010
1111000111110000
1111001000100010
1111001010111000
1111001011101010
1111001011101010
1111001110000000
1111001011101010
1111001000100010
1111001001010100
1111001010000110
1111001010111000
1111001011101010
1111001001010100
1111000110001100
1111000111110000
1111001000100010
1111001001010100
1111001010000110
1111000110111110
1111000111110000
1111000111110000
1111001001010100
1111001010000110
1111001000100010
1111001000100010
1111000110111110
1111000111110000
1111001010000110
1111001010000110
1111001001010100
1111001000100010
1111000111110000
1111001000100010
1111001001010100
1111001011101010
1111001011101010
1111001000100010
1111001010000110
1111001010111000
1111001100011100
1111001010111000
1111001010000110
1111001001010100
1111001000100010
1111001001010100
1111001011101010
1111001100011100
1111001100011100
1111001100011100
1111001100011100
1111010000010110
1111010011011110
1111010101000010
1111010100010000
1111010011011110
1111010010101100
1111010101000010
1111010111011000
1111011001101110
1111011010100000
1111011010100000
1111011010100000
1111011011010010
1111011100110110
1111011101101000
1111011100000100
1111011010100000
1111011000001010
1111011000001010
1111011010100000
1111011010100000
1111011000111100
1111010101110100
1111010101110100
1111011010100000
1111011100000100
1111011100110110
1111010110100110
1111010001111010
1111010000010110
1111001101001110
1111001110110010
1111001101001110
1111001100011100
1111001010000110
1111000111110000
1111000110111110
1111001000100010
1111001010000110
1111001010111000
1111001011101010
1111000111110000
1111001000100010
1111001010000110
1111001011101010
1111001000100010
1111001001010100
1111000101011010
1111000101011010
1111000110111110
1111000110111110
1111001001010100
1111000110001100
1111000100101000
1111000110111110
1111000110001100
1111001000100010
1111000110001100
1111000100101000
1111000011110110
1111000011110110
1111000001100000
1110111100110100
1110110111010110
1110110100001110
1110101110110000
1110101001010010
1110101101111110
1110111100000010
1111010000010110
1111100111110010
0000000001100100
0000101000101000
0001010011100110
0001110110110000
0010001011000100
0010001101011010
0001101110001010
0000111000010000
1111111011010100
1111001110000000
1110111000111010
1110110101110010
1110111011010000
1111000010010010
1111000100101000
1111000100101000
1111000011110110
1111000010010010
1111000001100000
1111000000101110
1111000010010010
1110111111111100
1111000011000100
1111000010010010
1111000000101110
1111000000101110
1111000010010010
1111000011110110
1111000011110110
1111000000101110
1111000000101110
1111000001100000
1111000011110110
1111000100101000
1111000011110110
1111000000101110
1110111111111100
1111000001100000
1111000010010010
1111000011110110
1111000010010010
1110111111111100
1111000000101110
1111000000101110
1111000010010010
1111000011000100
1111000010010010
1111000010010010
1111000000101110
1110111111111100
1111000001100000
1111000011110110
1111000010010010
1111000001100000
1111000010010010
1111000011110110
1111000011110110
1111000101011010
1111000101011010
1111000100101000
1111000010010010
1111000011110110
1111000011000100
1111000011110110
1111000100101000
1111000011000100
1111000001100000
1111000001100000
1111000011000100
1111000110111110
1111000101011010
1111000011110110
1111000001100000
1111000001100000
1111000011000100
1111000100101000
1111000101011010
1111000011110110
1111000010010010
1111000100101000
1111000110001100
1111000110111110
1111000110111110
1111000101011010
1111000011110110
1111000101011010
1111000101011010
1111000110111110
1111000110001100
1111000101011010
1111000001100000
1111000010010010
1111000000101110
1111000110001100
1111000011110110
1111000001100000
1110111111111100
1111000001100000
1111000010010010
1111000101011010
1111000100101000
1111000011110110
1111000000101110
1111000011110110
1111000101011010
1111000110001100
1111000110111110
1111000110111110
1111001001010100
1111001000100010
1111001110000000
1111001111100100
1111001111100100
1111010000010110
1111001111100100
1111010010101100
1111010100010000
1111010100010000
1111010101110100
1111010100010000
1111010011011110
1111010100010000
1111010011011110
1111010110100110
1111010101110100
1111010101000010
1111010010101100
1111010010101100
1111010101000010
1111010101000010
1111010101110100
1111010101000010
1111010010101100
1111010011011110
1111010011011110
1111010111011000
1111010111011000
1111010101000010
1111010011011110
1111010101000010
1111010110100110
1111010101110100
1111010100010000
1111010010101100
1111010001111010
1111010001001000
1111010100010000
1111010100010000
1111010101000010
1111010010101100
1111010001001000
1111010000010110
1111010011011110
1111010011011110
1111010011011110
1111010001111010
1111010001001000
1111010001001000
1111010001111010
1111010100010000
1111010001111010
1111010010101100
1111010000010110
1111010000010110
1111010001001000
1111010011011110
1111010011011110
1111001111100100
1111001110110010
1111010000010110
1111010000010110
1111010001111010
1111010001001000
1111001110000000
1111001011101010
1111001110000000
1111001110000000
1111001111100100
1111001110110010
1111001111100100
1111001100011100
1111001110000000
1111001111100100
1111010000010110
1111010000010110
1111001110110010
1111001110110010
1111001110110010
1111010000010110
1111010000010110
1111010001001000
1111001111100100
1111001111100100
1111001111100100
1111001111100100
1111010001111010
1111010001001000
1111001101001110
1111001101001110
1111001100011100
1111001110000000
1111001111100100
1111010000010110
1111001110110010
1111001100011100
1111001110000000
1111001111100100
1111010000010110
1111010001001000
1111010001111010
1111001110000000
1111001111100100
1111010001001000
1111010101000010
1111010101110100
1111010111011000
1111011000111100
1111011011010010
1111011100000100
1111011100110110
1111011100000100
1111011100000100
1111011010100000
1111011100000100
1111011100110110
1111011111111110
1111011111111110
1111100000110000
1111011111001100
1111100001100010
1111100000110000
1111100010010100
1111100000110000
1111011111001100
1111011100110110
1111011100110110
1111011101101000
1111011101101000
1111011101101000
1111011100000100
1111011000111100
1111011001101110
1111011100000100
1111011111111110
1111100011000110
1111100001100010
1111011100110110
1111011000111100
1111011000001010
1111010110100110
1111010101000010
1111010000010110
1111001110000000
1111001101001110
1111001101001110
1111001100011100
1111001100011100
1111001101001110
1111001011101010
1111001010111000
1111001011101010
1111001110000000
1111001011101010
1111001010000110
1111001000100010
1111001001010100
1111001000100010
1111001001010100
1111001010000110
1111001010111000
1111001000100010
1111001001010100
1111001010111000
1111001010111000
1111001010111000
1111001000100010
1111000001100000
1110111100000010
1110111000111010
1110110110100100
1110110001111000
1110101011101000
1110101010110110
1110110111010110
1111001000100010
1111011111001100
1111111010100010
0000011100111010
0001000011111110
0001101001011110
0010000000001000
0010000000111010
0001100100000000
0000110010000000
1111110101000100
1111001010111000
1110111010011110
1110111010011110
1110111111111100
1111000100101000
1111000101011010
1111000101011010
1111000110001100
1111000110111110
1111000111110000
1111000110001100
1111000101011010
1111000110001100
1111000111110000
1111001001010100
1111001000100010
1111000110111110
1111000100101000
1111000100101000
1111000110001100
1111000110111110
1111000110111110
1111000100101000
1111000011110110
1111000011000100
1111000100101000
1111000101011010
1111000101011010
1111000100101000
1111000011000100
1111000100101000
1111000101011010
1111000110001100
1111000110111110
1111000101011010
1111000011110110
1111000110111110
1111000111110000
1111001001010100
1111001000100010
1111001000100010
1111000110001100
1111000110111110
1111001001010100
1111000111110000
1111000110111110
1111000110111110
1111000101011010
1111000101011010
1111001000100010
1111001000100010
1111000110001100
1111000101011010
1111000100101000
1111000011110110
1111000110001100
1111000110001100
1111000111110000
1111000110001100
1111000101011010
1111000110111110
1111001000100010
1111001010000110
1111000111110000
1111001000100010
1111000110111110
1111000111110000
1111001010000110
1111001011101010
1111001011101010
1111001000100010
1111001000100010
1111001001010100
1111001010111000
1111001001010100
1111001001010100
1111001000100010
1111000110111110
1111000111110000
1111000110111110
1111000110111110
1111000110111110
1111000110001100
1111000101011010
1111000100101000
1111000110111110
1111001001010100
1111000111110000
1111000110111110
1111000100101000
1111000101011010
1111000110001100
1111000111110000
1111000110111110
1111000101011010
1111000100101000
1111000101011010
1111000111110000
1111001000100010
1111001000100010
1111001000100010
1111001001010100
1111001001010100
1111001010111000
1111001100011100
1111001101001110
1111001011101010
1111001011101010
1111001100011100
1111001111100100
1111010001001000
1111010001111010
1111010000010110
1111001111100100
1111010011011110
1111010011011110
1111010110100110
1111010101110100
1111010011011110
1111010010101100
1111010101000010
1111010101110100
1111011000001010
1111010110100110
1111010110100110
1111010101000010
1111010101110100
1111010111011000
1111011000111100
1111010111011000
1111010101110100
1111010100010000
1111010010101100
1111010010101100
1111010100010000
1111010100010000
1111010010101100
1111010000010110
1111010001001000
1111010001001000
1111010001111010
1111010001001000
1111010010101100
1111010001001000
1111001111100100
1111001111100100
1111010001111010
1111010001111010
1111010001001000
1111001110000000
1111001110110010
1111001110110010
1111010001001000
1111001111100100
1111010000010110
1111001110110010
1111010000010110
1111010000010110
1111010000010110
1111010001001000
1111010000010110
1111001111100100
1111001110110010
1111001110110010
1111001110110010
1111001110000000
1111001011101010
1111001010000110
1111001011101010
1111001111100100
1111001101001110
1111001110000000
1111001100011100
1111001101001110
1111001101001110
1111001110000000
1111001110000000
1111001110110010
1111001101001110
1111001010000110
1111001011101010
1111001101001110
1111001101001110
1111001100011100
1111001011101010
1111001010111000
1111001011101010
1111001101001110
1111001110000000
1111001110110010
1111001011101010
1111001010000110
1111001011101010
1111001101001110
1111001101001110
1111001110000000
1111001101001110
1111001011101010
1111001110000000
1111001110000000
1111001111100100
1111001111100100
1111001110000000
1111001100011100
1111001010111000
1111001101001110
1111010000010110
1111010000010110
1111010010101100
1111010010101100
1111010101110100
1111010110100110
1111010110100110
1111010111011000
1111010111011000
1111010101110100
1111010101000010
1111010111011000
1111011001101110
1111011011010010
1111011100000100
1111011001101110
1111011010100000
1111011100000100
1111011010100000
1111011100110110
1111011010100000
1111011001101110
1111011010100000
1111011101101000
1111011101101000
1111011100000100
1111011001101110
1111011000001010
1111011010100000
1111011110011010
1111011100110110
1111011000001010
1111010011011110
1111001111100100
1111001111100100
1111001100011100
1111001011101010
1111001001010100
1111001001010100
1111000111110000
1111001000100010
1111001010111000
1111001010111000
1111001011101010
1111001001010100
1111000111110000
1111000111110000
1111001010000110
1111001010000110
1111001001010100
1111001001010100
1111000111110000
1111001001010100
1111001001010100
1111001010000110
1111001000100010
1111001000100010
1111000110001100
1111000101011010
1111000011000100
1110111101100110
1110111000111010
1110110101110010
1110110001111000
1110101011101000
1110100110111100
1110110000010100
1110111111001010
1111001011101010
1111010111011000
1111101000100100
1111111111001110
0000100000000010
0001001001011100
0001101010010000
0010000000111010
0010010000100010
0010010111100100
0010001010010010
0001101011110100
0001000000110110
0000010000011010
1111101000100100
1111001010000110
1110111100000010
1110110111010110
1110111000111010
1110111101100110
1110111111001010
1111000010010010
1111000101011010
1111000110001100
1111000010010010
1111000001100000
1111000001100000
1110111111111100
1111000001100000
1111000000101110
1111000001100000
1111000000101110
1111000010010010
1111000011000100
1111000100101000
1111000011110110
1111000000101110
1110111110011000
1111000000101110
1111000001100000
1111000011000100
1111000100101000
1111000010010010
1111000010010010
1111000001100000
1111000011000100
1110111111111100
1111000000101110
1110111111111100
1110111111111100
1111000010010010
1111000011110110
1111000010010010
1111000000101110
1110111110011000
1110111100000010
1110111111001010
1111000000101110
1110111111111100
1111000001100000
1110111111111100
1110111111001010
1110111111111100
1111000001100000
1111000000101110
1111000011000100
1111000011000100
1111000001100000
1111000011000100
1111000011000100
1111000011000100
1111000010010010
1110111110011000
1110111110011000
1110111111001010
1110111111111100
1111000010010010
1111000010010010
1111000001100000
1110111111001010
1110111111001010
1111000001100000
1111000001100000
1111000011110110
1111000011000100
1110111111111100
1111000010010010
1111000011000100
1111000100101000
1111000101011010
1111000011000100
1111000000101110
1110111110011000
1110111111001010
1110111111001010
1110111111001010
1110111100000010
1110110111010110
1110111000111010
1110110111010110
1110111000001000
1110111010011110
1110111000111010
1110110111010110
1110110101110010
1110111000111010
1110111000001000
1110111001101100
1110111000111010
1110110110100100
1110111000111010
1110111011010000
1110111110011000
1110111111001010
1110111110011000
1110111111111100
1110111111111100
1111000110001100
1111000111110000
1111001001010100
1111001001010100
1111001010000110
1111001011101010
1111001110000000
1111010001001000
1111001110000000
1111001110110010
1111001010111000
1111001101001110
1111010001001000
1111010001001000
1111010001001000
1111001111100100
1111001100011100
1111001111100100
1111010000010110
1111010001001000
1111010000010110
1111001110110010
1111001100011100
1111001111100100
1111010000010110
1111001111100100
1111010000010110
1111001111100100
1111001111100100
1111001111100100
1111010001001000
1111010000010110
1111001111100100
1111001111100100
1111001110000000
1111001110110010
1111001100011100
1111001110110010
1111001110000000
1111001010111000
1111001010111000
1111001011101010
1111001100011100
1111001110000000
1111001110000000
1111001101001110
1111001001010100
1111001010111000
1111001011101010
1111001011101010
1111001010000110
1111001001010100
1111000111110000
1111000111110000
1111001010000110
1111001011101010
1111001011101010
1111001011101010
1111001010000110
1111001011101010
1111001011101010
1111001100011100
1111001011101010
1111001011101010
1111001001010100
1111001010000110
1111001000100010
1111001010000110
1111001010000110
1111001000100010
1111000110111110
1111000111110000
1111001000100010
1111001010000110
1111001010000110
1111001010000110
1111000111110000
1111001010000110
1111001010111000
1111001011101010
1111001010111000
1111001010000110
1111000110001100
1111000110001100
1111000111110000
1111001010111000
1111001001010100
1111000110111110
1111001000100010
1111001001010100
1111001010111000
1111001010111000
1111001000100010
1111001000100010
1111001001010100
1111001001010100
1111001011101010
1111001010111000
1111001010111000
1111001100011100
1111001001010100
1111001110110010
1111010001001000
1111010010101100
1111010101000010
1111010100010000
1111010011011110
1111010101000010
1111010101110100
1111011000001010
1111011010100000
1111011000111100
1111011000001010
1111011010100000
1111011100110110
1111011100110110
1111011010100000
1111011000001010
1111010111011000
1111010101000010
1111010111011000
1111011001101110
1111011000001010
1111010110100110
1111010100010000
1111010101110100
1111011000111100
1111011011010010
1111011100000100
1111011001101110
1111010101110100
1111010100010000
1111010100010000
1111010010101100
1111001110110010
1111001011101010
1111001000100010
1111001000100010
1111001000100010
1111000111110000
1111000111110000
1111000101011010
1111000100101000
1111000111110000
1111001000100010
1111001001010100
1111001010000110
1111000110001100
1111000110001100
1111001000100010
1111001000100010
1111001001010100
1111001010000110
1111001000100010
1111001000100010
1111000111110000
1111001000100010
1111001000100010
1111001000100010
1111000111110000
1111000101011010
1111000110001100
1111000011000100
1110111101100110
1110110111010110
1110110011011100
1110101101111110
1110101000100000
1110101000100000
1110110010101010
1111000111110000
1111011101101000
1111111000111110
0000011101101100
0001001010001110
0001110001010010
0010001011110110
0010001011110110
0001101110111100
0000110110101100
1111110111011010
1111001001010100
1110110101000000
1110110011011100
1110110111010110
1110111111001010
1111000000101110
1111000010010010
1111000000101110
1110111110011000
1111000010010010
1110111111001010
1111000001100000
1111000011000100
1111000011110110
1111000010010010
1111000000101110
1111000010010010
1111000001100000
1111000011000100
1111000011000100
1111000001100000
1110111111001010
1111000000101110
1111000011000100
1111000100101000
1111000100101000
1111000000101110
1111000011000100
1111000001100000
1111000011000100
1111000100101000
1111000100101000
1111000000101110
1111000001100000
1110111111111100
1111000001100000
1111000010010010
1111000001100000
1111000001100000
1111000000101110
1111000011000100
1111000100101000
1111000011110110
1111000011110110
1111000011000100
1111000000101110
1111000001100000
1111000001100000
1111000011000100
1111000011000100
1110111111111100
1110111111111100
1111000000101110
1111000001100000
1110111111111100
1111000000101110
1110111111111100
1110111111001010
1110111111111100
1111000000101110
1111000010010010
1111000000101110
1111000001100000
1111000001100000
1111000010010010
1111000000101110
1111000100101000
1111000011110110
1111000011000100
1110111111111100
1111000010010010
1111000011000100
1111000100101000
1111000011110110
1111000000101110
1111000000101110
1111000000101110
1111000001100000
1110111111111100
1110111111111100
1110111111001010
1110111100000010
1110111100110100
1110111111001010
1110111110011000
1110111110011000
1110111011010000
1110111011010000
1110111100000010
1110111100000010
1110111100000010
1110111100110100
1110111010011110
1110111010011110
1110111110011000
1110111101100110
1110111111111100
1111000000101110
1111000001100000
1110111111111100
1111000100101000
1111000110001100
1111001001010100
1111001010111000
1111001000100010
1111001010000110
1111001010111000
1111001110110010
1111001110000000
1111010001001000
1111010001001000
1111001110110010
1111010000010110
1111010001001000
1111010100010000
1111010010101100
1111010010101100
1111010001001000
1111010001111010
1111010001111010
1111010100010000
1111010011011110
1111010010101100
1111010001111010
1111010011011110
1111010100010000
1111010101000010
1111010110100110
1111010100010000
1111010001111010
1111010100010000
1111010100010000
1111010101000010
1111010010101100
1111010001111010
1111001111100100
1111010010101100
1111010010101100
1111010101000010
1111010101110100
1111010001111010
1111001110110010
1111001111100100
1111010001001000
1111010001111010
1111010010101100
1111010001001000
1111001110110010
1111010000010110
1111010001001000
1111010010101100
1111001111100100
1111001110110010
1111001100011100
1111001111100100
1111010000010110
1111010001111010
1111010001111010
1111010000010110
1111001101001110
1111001110110010
1111001110110010
1111001111100100
1111010001001000
1111001110110010
1111001011101010
1111001101001110
1111001101001110
1111001110110010
1111001111100100
1111001110000000
1111001011101010
1111001101001110
1111001111100100
1111010000010110
1111010000010110
1111001110000000
1111001101001110
1111001110110010
1111001111100100
1111010001001000
1111001110110010
1111001101001110
1111001110000000
1111001110000000
1111001110000000
1111001111100100
1111001111100100
1111001111100100
1111001110110010
1111010000010110
1111010011011110
1111010001111010
1111010000010110
1111001111100100
1111001110110010
1111010001001000
1111001110110010
1111010000010110
1111010000010110
1111001101001110
1111001101001110
1111001110110010
1111010001001000
1111010001111010
1111001111100100
1111001110110010
1111001110000000
1111001110110010
1111001111100100
1111010001111010
1111010011011110
1111010101110100
1111011000111100
1111011001101110
1111011100000100
1111011101101000
1111011100110110
1111011011010010
1111011100000100
1111011101101000
1111011111111110
1111100010010100
1111100010010100
1111100010010100
1111011111111110
1111011111111110
1111011111111110
1111011111001100
1111011110011010
1111011100110110
1111011100000100
1111011100110110
1111011101101000
1111011101101000
1111011010100000
1111011010100000
1111011100000100
1111011111111110
1111100001100010
1111100001100010
1111011101101000
1111011001101110
1111010101000010
1111010111011000
1111010101000010
1111010011011110
1111010001001000
1111010001001000
1111001111100100
1111001111100100
1111001110000000
1111001110000000
1111001101001110
1111001011101010
1111001010000110
1111001011101010
1111001011101010
1111001100011100
1111001011101010
1111001010000110
1111000111110000
1111001010000110
1111001011101010
1111001010000110
1111001010000110
1111001000100010
1111000111110000
1111001000100010
1111001010111000
1111001010111000
1111001001010100
1111001001010100
1111001000100010
1111001000100010
1111001000100010
1111000110001100
1110111101100110
1110110111010110
1110110101000000
1110110001111000
1110101101001100
1110101100011010
1110110100001110
1111000010010010
1111011000001010
1111110001001010
0000001110110110
0000110110101100
0001100010011100
0010000100000010
0010010101001110
0010011000010110
0010000000111010
0001001011000000
0000001000100110
1111010101110100
1110111000111010
1110110100001110
1110111011010000
1111000000101110
1111000101011010
1111000101011010
1111000011000100
1111000100101000
1111000111110000
1111001000100010
1111001010000110
1111000110111110
1111000101011010
1111000110001100
1111000110001100
1111001000100010
1111000110001100
1111000101011010
1111000100101000
1111000011110110
1111000100101000
1111000100101000
1111000100101000
1111000011110110
1111000010010010
1111000010010010
1111000011000100
1111000011110110
1111000100101000
1111000100101000
1111000010010010
1111000011000100
1111000100101000
1111000110001100
1111000101011010
1111000011110110
1111000100101000
1111000101011010
1111000110111110
1111000111110000
1111000110111110
1111000110111110
1111000011110110
1111000110001100
1111000110111110
1111001000100010
1111000011110110
1111000010010010
1111000010010010
1111000011110110
1111000110001100
1111000100101000
1111000110001100
1111000101011010
1111000011000100
1111000011110110
1111000100101000
1111000110001100
1111000110001100
1111000011110110
1111000011110110
1111000100101000
1111000011110110
1111000110001100
1111000101011010
1111000101011010
1111000100101000
1111000100101000
1111001000100010
1111000111110000
1111000110111110
1111000110001100
1111000100101000
1111000110001100
1111000101011010
1111000111110000
1111000110001100
1111000100101000
1111000011110110
1111000101011010
1111000101011010
1111000110001100
1111000110001100
1111000011110110
1111000001100000
1111000010010010
1111000011110110
1111000010010010
1111000100101000
1111000001100000
1111000001100000
1111000001100000
1111000011000100
1111000011000100
1111000011110110
1111000001100000
1111000001100000
1111000011110110
1111000100101000
1111000100101000
1111000011110110
1111000011110110
1111000000101110
1111000010010010
1111000100101000
1111000110001100
1111000110001100
1111000100101000
1111000110111110
1111001000100010
1111001011101010
1111001101001110
1111001110000000
1111001110000000
1111001100011100
1111001110110010
1111010001001000
1111010001111010
1111010011011110
1111010001111010
1111010010101100
1111010011011110
1111010101110100
1111010111011000
1111010110100110
1111010101000010
1111010100010000
1111010101000010
1111010101110100
1111010101110100
1111010111011000
1111010101110100
1111010100010000
1111010011011110
1111010101000010
1111010110100110
1111010101110100
1111010011011110
1111010011011110
1111010011011110
1111010101000010
1111010100010000
1111010101000010
1111010011011110
1111010001111010
1111010001111010
1111010011011110
1111010100010000
1111010101110100
1111010011011110
1111010101000010
1111010010101100
1111010011011110
1111010100010000
1111010010101100
1111010001001000
1111001111100100
1111001111100100
1111001111100100
1111010001001000
1111010001001000
1111001110110010
1111001101001110
1111001110110010
1111010000010110
1111001111100100
1111001111100100
1111001110110010
1111001100011100
1111001101001110
1111001110000000
1111001110000000
1111001110110010
1111001101001110
1111001100011100
1111001011101010
1111001101001110
1111001110000000
1111001110000000
1111001110110010
1111001110000000
1111001111100100
1111001111100100
1111010001001000
1111010000010110
1111001110000000
1111001010111000
1111001011101010
1111001100011100
1111001110000000
1111001100011100
1111001100011100
1111001011101010
1111001010111000
1111001011101010
1111001101001110
1111001010111000
1111001010000110
1111001010111000
1111001010111000
1111001101001110
1111001010111000
1111001011101010
1111001010111000
1111001001010100
1111001010111000
1111001100011100
1111001100011100
1111001101001110
1111001011101010
1111001010111000
1111001011101010
1111001110110010
1111001110110010
1111001111100100
1111001110000000
1111001100011100
1111001110000000
1111010000010110
1111001111100100
1111010000010110
1111010001111010
1111001110000000
1111010000010110
1111010010101100
1111010011011110
1111010011011110
1111010011011110
1111010011011110
1111010110100110
1111011000111100
1111011000111100
1111011000111100
1111011000111100
1111011000111100
1111011000111100
1111011100000100
1111011110011010
1111011100110110
1111011100110110
1111011100000100
1111011100000100
1111011100110110
1111011110011010
1111011110011010
1111011100000100
1111011000111100
1111011010100000
1111011100000100
1111011100000100
1111011010100000
1111011000111100
1111011000001010
1111011101101000
1111100000110000
1111100000110000
1111011100110110
1111010110100110
1111010010101100
1111010010101100
1111010001001000
1111001111100100
1111001101001110
1111001011101010
1111001010111000
1111001001010100
1111001010111000
1111001010111000
1111001010000110
1111001100011100
1111001001010100
1111001010000110
1111001010000110
1111001010111000
1111001001010100
1111001000100010
1111001000100010
1111001000100010
1111001010000110
1111001010111000
1111001010111000
1111001000100010
1111000111110000
1111000111110000
1111001000100010
1111001010000110
1111001010000110
1111000111110000
1111000110001100
1111000101011010
1111000110001100
1111000100101000
1110111110011000
1110110111010110
1110110100001110
1110101111100010
1110101010110110
1110100110001010
1110101010110110
1110111001101100
1111001101001110
1111100001100010
1111111000111110
0000011001110010
0001000010011010
0001100110010110
0001111110100100
0010001000101110
0001111111010110
0001011100001100
0000100010011000
1111101000100100
1111000100101000
1110110110100100
1110110111010110
1110111101100110
1111000011110110
1111000101011010
1111000010010010
1111000011110110
1111000101011010
1111001000100010
1111000110001100
1111000111110000
1111000110111110
1111000110001100
1111000110001100
1111000111110000
1111000110111110
1111000101011010
1111000100101000
1111000110001100
1111000110001100
1111000110001100
1111000100101000
1111000011110110
1111000010010010
1111000011000100
1111000100101000
1111000101011010
1111000101011010
1111000010010010
1111000001100000
1111000010010010
1111000110001100
1111000110001100
1111000110001100
1111000110111110
1111000011000100
1111000011110110
1111000101011010
1111000111110000
1111000100101000
1111000011000100
1111000011000100
1111000011110110
1111000101011010
1111000101011010
1111000101011010
1111000100101000
1111000011000100
1111000100101000
1111000110111110
1111000100101000
1111000100101000
1111000011110110
1111000011000100
1111000011000100
1111000100101000
1111000100101000
1111000011110110
1111000010010010
1111000001100000
1111000011110110
1111000100101000
1111000111110000
1111000110001100
1111000101011010
1111000110001100
1111000011110110
1111000110001100
1111000110111110
1111000111110000
1111000110111110
1111000101011010
1111000100101000
1111000110111110
1111000110001100
1111000111110000
1111000110001100
1111000010010010
1111000011110110
1111000011110110
1111000011000100
1111000011000100
1111000011000100
1110111111111100
1111000011000100
1111000100101000
1111000011000100
1111000100101000
1111000010010010
1111000000101110
1111000000101110
1111000010010010
1111000011000100
1111000011000100
1110111111111100
1110111111001010
1111000011000100
1111000100101000
1111000011000100
1111000011110110
1111000011000100
1111000011000100
1111000100101000
1111000111110000
1111001000100010
1111001010000110
1111001010111000
1111001010000110
1111001100011100
1111001110000000
1111001110110010
1111010001001000
1111010000010110
1111001110000000
1111010001001000
1111010101000010
1111010101000010
1111010101000010
1111010101000010
1111010100010000
1111010011011110
1111010101000010
1111010101000010
1111010100010000
1111010001111010
1111010000010110
1111010000010110
1111010001001000
1111010010101100
1111010011011110
1111010001111010
1111001111100100
1111010001001000
1111010001001000
1111010001111010
1111010001001000
1111010000010110
1111001111100100
1111001110110010
1111010000010110
1111001111100100
1111001111100100
1111001110110010
1111001110000000
1111010000010110
1111010010101100
1111010011011110
1111010001111010
1111010001001000
1111001110110010
1111001111100100
1111001110110010
1111001110000000
1111001110000000
1111001100011100
1111001010111000
1111001110000000
1111001111100100
1111001110000000
1111001110000000
1111001100011100
1111001010000110
1111001010111000
1111001100011100
1111001100011100
1111001110000000
1111001100011100
1111001101001110
1111001101001110
1111001110000000
1111001110110010
1111001110000000
1111001100011100
1111001010000110
1111001110000000
1111001110110010
1111001110110010
1111001110000000
1111001101001110
1111001011101010
1111001010111000
1111001100011100
1111001101001110
1111001110110010
1111001011101010
1111001010000110
1111001010111000
1111001101001110
1111001110000000
1111001100011100
1111001010000110
1111001010111000
1111001100011100
1111001010111000
1111001101001110
1111001110110010
1111001111100100
1111001101001110
1111001110110010
1111001100011100
1111001110110010
1111001110000000
1111001101001110
1111001100011100
1111001100011100
1111001110110010
1111001111100100
1111010000010110
1111001111100100
1111001111100100
1111010001001000
1111010011011110
1111010101000010
1111010101110100
1111010101110100
1111010100010000
1111010110100110
1111011000001010
1111011000111100
1111011001101110
1111011000111100
1111011001101110
1111011100110110
1111011110011010
1111011101101000
1111011101101000
1111011100000100
1111011011010010
1111011010100000
1111011010100000
1111011100000100
1111011100110110
1111011010100000
1111010101110100
1111011000111100
1111011000001010
1111011011010010
1111011100110110
1111011110011010
1111011010100000
1111010111011000
1111010101000010
1111010011011110
1111001110110010
1111001110000000
1111001010000110
1111001001010100
1111001001010100
1111000111110000
1111000110111110
1111001000100010
1111000111110000
1111000111110000
1111000111110000
1111001001010100
1111001010000110
1111001000100010
1111000101011010
1111000110111110
1111001001010100
1111001010000110
1111001010111000
1111001011101010
1111001000100010
1111000110111110
1111001001010100
1111001010000110
1111001010000110
1111001000100010
1111000110001100
1111000110001100
1111000110111110
1111000111110000
1111000011110110
1110111111001010
1110111000111010
1110110111010110
1110111000001000
1110110101110010
1110110010101010
1110101001010010
1110100100100110
1110101010000100
1110111000001000
1111001010000110
1111011111111110
1111111001110000
0000011101101100
0001000111000110
0001101010010000
0010000011010000
0010001001100000
0001110001010010
0000111110100000
0000000000000000
1111010100010000
1110111100000010
1110110000010100
1110110100001110
1110111000001000
1110111100110100
1111000000101110
1110111111111100
1110111111111100
1110111111001010
1111000000101110
1110111111001010
1111000010010010
1111000011000100
1111000010010010
1111000000101110
1110111111111100
1110111111111100
1111000010010010
1111000011000100
1111000001100000
1111000001100000
1111000010010010
1111000001100000
1111000011110110
1111000011110110
1111000010010010
1110111111111100
1110111110011000
1110111111111100
1111000001100000
1111000011000100
1110111111111100
1110111111001010
1110111101100110
1110111101100110
1111000000101110
1111000001100000
1110111101100110
1110111111001010
1110111111001010
1110111111111100
1111000000101110
1111000001100000
1110111111111100
1111000000101110
1110111111001010
1110111111111100
1111000001100000
1111000010010010
1111000001100000
1111000000101110
1111000000101110
1110111111001010
1111000000101110
1111000001100000
1111000000101110
1110111111111100
1110111110011000
1110111111001010
1111000001100000
1111000010010010
1111000001100000
1110111111001010
1110111110011000
1110111111111100
1111000001100000
1111000010010010
1111000001100000
1110111111001010
1110111111111100
1110111111001010
1110111111001010
1111000000101110
1110111111111100
1110111110011000
1110111011010000
1110111100110100
1110111100110100
1110111101100110
1110111100000010
1110111100000010
1110111011010000
1110111001101100
1110111001101100
1110111001101100
1110110111010110
1110110110100100
1110110100001110
1110110111010110
1110111000111010
1110111001101100
1110111001101100
1110110110100100
1110110100001110
1110111000001000
1110111010011110
1110111100000010
1110111101100110
1110111100110100
1110111100110100
1110111111001010
1111000011110110
1111000110111110
1111000101011010
1111000111110000
1111000111110000
1111001001010100
1111001011101010
1111001011101010
1111001101001110
1111001011101010
1111001011101010
1111001011101010
1111001111100100
1111001111100100
1111001110110010
1111001110110010
1111001110000000
1111001110110010
1111010001111010
1111010001111010
1111010001001000
1111010000010110
1111001100011100
1111001101001110
1111001110110010
1111001101001110
1111001110000000
1111001100011100
1111001011101010
1111001011101010
1111001100011100
1111010000010110
1111001101001110
1111001101001110
1111001101001110
1111001101001110
1111001111100100
1111010000010110
1111001110110010
1111001101001110
1111001100011100
1111001101001110
1111001101001110
1111001010111000
1111001010111000
1111001010111000
1111001010000110
1111001010111000
1111001101001110
1111001100011100
1111001110000000
1111001101001110
1111001010111000
1111001010111000
1111001011101010
1111001010111000
1111001001010100
1111001000100010
1111000111110000
1111001001010100
1111001010000110
1111001010000110
1111000111110000
1111001000100010
1111000110001100
1111000110111110
1111001001010100
1111000111110000
1111001001010100
1111000111110000
1111000110001100
1111000111110000
1111001000100010
1111001010000110
1111001010000110
1111001001010100
1111001001010100
1111001010000110
1111001011101010
1111001100011100
1111001010111000
1111001010000110
1111001001010100
1111001010000110
1111001010000110
1111001010111000
1111001010111000
1111001010000110
1111000111110000
1111001001010100
1111001010000110
1111001011101010
1111001010000110
1111001010000110
1111001000100010
1111001010000110
1111001011101010
1111001101001110
1111001110000000
1111010000010110
1111010000010110
1111010001001000
1111010011011110
1111010100010000
1111010110100110
1111010101000010
1111010101110100
1111011001101110
1111011010100000
1111011100000100
1111011011010010
1111011100000100
1111011001101110
1111011001101110
1111011010100000
1111011000111100
1111011000001010
1111011000001010
1111010101110100
1111010110100110
1111010110100110
1111010110100110
1111011000001010
1111011000111100
1111011011010010
1111011100000100
1111011000111100
1111010111011000
